Created as New Dataset,Sample 701 By YargerLab Date Thursday, March 19 2026
cm-1,A
4000.00,0.0169
3999.00,0.0169
3998.00,0.0170
3997.00,0.0170
3996.00,0.0170
3995.00,0.0170
3994.00,0.0170
3993.00,0.0170
3992.00,0.0170
3991.00,0.0170
3990.00,0.0170
3989.00,0.0170
3988.00,0.0170
3987.00,0.0169
3986.00,0.0169
3985.00,0.0169
3984.00,0.0169
3983.00,0.0169
3982.00,0.0169
3981.00,0.0169
3980.00,0.0169
3979.00,0.0169
3978.00,0.0169
3977.00,0.0169
3976.00,0.0169
3975.00,0.0168
3974.00,0.0168
3973.00,0.0168
3972.00,0.0168
3971.00,0.0168
3970.00,0.0168
3969.00,0.0168
3968.00,0.0168
3967.00,0.0168
3966.00,0.0168
3965.00,0.0168
3964.00,0.0168
3963.00,0.0168
3962.00,0.0168
3961.00,0.0168
3960.00,0.0168
3959.00,0.0168
3958.00,0.0168
3957.00,0.0168
3956.00,0.0168
3955.00,0.0168
3954.00,0.0168
3953.00,0.0168
3952.00,0.0168
3951.00,0.0168
3950.00,0.0168
3949.00,0.0168
3948.00,0.0168
3947.00,0.0168
3946.00,0.0168
3945.00,0.0168
3944.00,0.0168
3943.00,0.0168
3942.00,0.0168
3941.00,0.0168
3940.00,0.0168
3939.00,0.0167
3938.00,0.0167
3937.00,0.0167
3936.00,0.0168
3935.00,0.0168
3934.00,0.0168
3933.00,0.0167
3932.00,0.0167
3931.00,0.0167
3930.00,0.0167
3929.00,0.0167
3928.00,0.0167
3927.00,0.0166
3926.00,0.0166
3925.00,0.0166
3924.00,0.0167
3923.00,0.0167
3922.00,0.0167
3921.00,0.0167
3920.00,0.0167
3919.00,0.0167
3918.00,0.0167
3917.00,0.0167
3916.00,0.0167
3915.00,0.0167
3914.00,0.0166
3913.00,0.0166
3912.00,0.0166
3911.00,0.0166
3910.00,0.0166
3909.00,0.0166
3908.00,0.0166
3907.00,0.0166
3906.00,0.0166
3905.00,0.0166
3904.00,0.0166
3903.00,0.0166
3902.00,0.0166
3901.00,0.0166
3900.00,0.0166
3899.00,0.0165
3898.00,0.0166
3897.00,0.0166
3896.00,0.0166
3895.00,0.0166
3894.00,0.0166
3893.00,0.0166
3892.00,0.0166
3891.00,0.0166
3890.00,0.0167
3889.00,0.0167
3888.00,0.0166
3887.00,0.0166
3886.00,0.0166
3885.00,0.0166
3884.00,0.0166
3883.00,0.0165
3882.00,0.0165
3881.00,0.0165
3880.00,0.0165
3879.00,0.0165
3878.00,0.0165
3877.00,0.0165
3876.00,0.0165
3875.00,0.0165
3874.00,0.0165
3873.00,0.0166
3872.00,0.0166
3871.00,0.0165
3870.00,0.0166
3869.00,0.0166
3868.00,0.0166
3867.00,0.0165
3866.00,0.0165
3865.00,0.0165
3864.00,0.0165
3863.00,0.0165
3862.00,0.0165
3861.00,0.0165
3860.00,0.0165
3859.00,0.0165
3858.00,0.0165
3857.00,0.0165
3856.00,0.0164
3855.00,0.0164
3854.00,0.0164
3853.00,0.0164
3852.00,0.0164
3851.00,0.0163
3850.00,0.0163
3849.00,0.0163
3848.00,0.0164
3847.00,0.0164
3846.00,0.0164
3845.00,0.0164
3844.00,0.0164
3843.00,0.0164
3842.00,0.0164
3841.00,0.0164
3840.00,0.0164
3839.00,0.0164
3838.00,0.0164
3837.00,0.0163
3836.00,0.0163
3835.00,0.0163
3834.00,0.0163
3833.00,0.0163
3832.00,0.0163
3831.00,0.0163
3830.00,0.0163
3829.00,0.0163
3828.00,0.0163
3827.00,0.0163
3826.00,0.0163
3825.00,0.0163
3824.00,0.0163
3823.00,0.0163
3822.00,0.0162
3821.00,0.0162
3820.00,0.0163
3819.00,0.0163
3818.00,0.0162
3817.00,0.0162
3816.00,0.0163
3815.00,0.0163
3814.00,0.0163
3813.00,0.0163
3812.00,0.0163
3811.00,0.0163
3810.00,0.0163
3809.00,0.0163
3808.00,0.0162
3807.00,0.0162
3806.00,0.0163
3805.00,0.0163
3804.00,0.0162
3803.00,0.0162
3802.00,0.0162
3801.00,0.0162
3800.00,0.0162
3799.00,0.0162
3798.00,0.0162
3797.00,0.0162
3796.00,0.0162
3795.00,0.0162
3794.00,0.0162
3793.00,0.0162
3792.00,0.0162
3791.00,0.0162
3790.00,0.0162
3789.00,0.0162
3788.00,0.0162
3787.00,0.0162
3786.00,0.0162
3785.00,0.0162
3784.00,0.0162
3783.00,0.0162
3782.00,0.0162
3781.00,0.0162
3780.00,0.0162
3779.00,0.0162
3778.00,0.0161
3777.00,0.0161
3776.00,0.0161
3775.00,0.0161
3774.00,0.0161
3773.00,0.0161
3772.00,0.0161
3771.00,0.0161
3770.00,0.0161
3769.00,0.0161
3768.00,0.0161
3767.00,0.0160
3766.00,0.0160
3765.00,0.0160
3764.00,0.0160
3763.00,0.0161
3762.00,0.0160
3761.00,0.0160
3760.00,0.0160
3759.00,0.0160
3758.00,0.0160
3757.00,0.0160
3756.00,0.0160
3755.00,0.0160
3754.00,0.0160
3753.00,0.0160
3752.00,0.0160
3751.00,0.0160
3750.00,0.0160
3749.00,0.0159
3748.00,0.0159
3747.00,0.0159
3746.00,0.0158
3745.00,0.0158
3744.00,0.0158
3743.00,0.0158
3742.00,0.0158
3741.00,0.0158
3740.00,0.0158
3739.00,0.0158
3738.00,0.0159
3737.00,0.0158
3736.00,0.0158
3735.00,0.0158
3734.00,0.0158
3733.00,0.0158
3732.00,0.0158
3731.00,0.0159
3730.00,0.0159
3729.00,0.0159
3728.00,0.0159
3727.00,0.0159
3726.00,0.0159
3725.00,0.0159
3724.00,0.0159
3723.00,0.0159
3722.00,0.0158
3721.00,0.0158
3720.00,0.0158
3719.00,0.0158
3718.00,0.0158
3717.00,0.0158
3716.00,0.0158
3715.00,0.0157
3714.00,0.0157
3713.00,0.0157
3712.00,0.0157
3711.00,0.0157
3710.00,0.0157
3709.00,0.0156
3708.00,0.0156
3707.00,0.0156
3706.00,0.0156
3705.00,0.0156
3704.00,0.0156
3703.00,0.0156
3702.00,0.0156
3701.00,0.0156
3700.00,0.0155
3699.00,0.0155
3698.00,0.0155
3697.00,0.0155
3696.00,0.0155
3695.00,0.0155
3694.00,0.0155
3693.00,0.0155
3692.00,0.0154
3691.00,0.0154
3690.00,0.0154
3689.00,0.0154
3688.00,0.0153
3687.00,0.0153
3686.00,0.0153
3685.00,0.0153
3684.00,0.0153
3683.00,0.0154
3682.00,0.0154
3681.00,0.0154
3680.00,0.0154
3679.00,0.0154
3678.00,0.0153
3677.00,0.0153
3676.00,0.0153
3675.00,0.0153
3674.00,0.0153
3673.00,0.0152
3672.00,0.0152
3671.00,0.0152
3670.00,0.0152
3669.00,0.0152
3668.00,0.0152
3667.00,0.0152
3666.00,0.0151
3665.00,0.0151
3664.00,0.0151
3663.00,0.0151
3662.00,0.0151
3661.00,0.0151
3660.00,0.0151
3659.00,0.0151
3658.00,0.0151
3657.00,0.0151
3656.00,0.0151
3655.00,0.0151
3654.00,0.0151
3653.00,0.0150
3652.00,0.0150
3651.00,0.0150
3650.00,0.0150
3649.00,0.0151
3648.00,0.0150
3647.00,0.0150
3646.00,0.0150
3645.00,0.0150
3644.00,0.0150
3643.00,0.0150
3642.00,0.0150
3641.00,0.0150
3640.00,0.0149
3639.00,0.0149
3638.00,0.0149
3637.00,0.0149
3636.00,0.0149
3635.00,0.0149
3634.00,0.0149
3633.00,0.0149
3632.00,0.0149
3631.00,0.0149
3630.00,0.0148
3629.00,0.0148
3628.00,0.0149
3627.00,0.0148
3626.00,0.0148
3625.00,0.0148
3624.00,0.0148
3623.00,0.0148
3622.00,0.0148
3621.00,0.0148
3620.00,0.0148
3619.00,0.0148
3618.00,0.0148
3617.00,0.0147
3616.00,0.0147
3615.00,0.0147
3614.00,0.0147
3613.00,0.0147
3612.00,0.0147
3611.00,0.0147
3610.00,0.0147
3609.00,0.0147
3608.00,0.0147
3607.00,0.0147
3606.00,0.0146
3605.00,0.0146
3604.00,0.0146
3603.00,0.0146
3602.00,0.0146
3601.00,0.0146
3600.00,0.0146
3599.00,0.0146
3598.00,0.0146
3597.00,0.0145
3596.00,0.0145
3595.00,0.0145
3594.00,0.0145
3593.00,0.0145
3592.00,0.0145
3591.00,0.0145
3590.00,0.0144
3589.00,0.0144
3588.00,0.0144
3587.00,0.0143
3586.00,0.0143
3585.00,0.0143
3584.00,0.0143
3583.00,0.0143
3582.00,0.0143
3581.00,0.0143
3580.00,0.0143
3579.00,0.0143
3578.00,0.0143
3577.00,0.0142
3576.00,0.0142
3575.00,0.0142
3574.00,0.0141
3573.00,0.0141
3572.00,0.0141
3571.00,0.0141
3570.00,0.0141
3569.00,0.0142
3568.00,0.0142
3567.00,0.0142
3566.00,0.0142
3565.00,0.0142
3564.00,0.0141
3563.00,0.0141
3562.00,0.0141
3561.00,0.0141
3560.00,0.0140
3559.00,0.0140
3558.00,0.0140
3557.00,0.0140
3556.00,0.0139
3555.00,0.0139
3554.00,0.0139
3553.00,0.0140
3552.00,0.0140
3551.00,0.0139
3550.00,0.0139
3549.00,0.0139
3548.00,0.0139
3547.00,0.0139
3546.00,0.0139
3545.00,0.0139
3544.00,0.0139
3543.00,0.0138
3542.00,0.0138
3541.00,0.0138
3540.00,0.0138
3539.00,0.0138
3538.00,0.0137
3537.00,0.0137
3536.00,0.0137
3535.00,0.0137
3534.00,0.0137
3533.00,0.0137
3532.00,0.0137
3531.00,0.0137
3530.00,0.0136
3529.00,0.0136
3528.00,0.0136
3527.00,0.0136
3526.00,0.0136
3525.00,0.0136
3524.00,0.0136
3523.00,0.0135
3522.00,0.0135
3521.00,0.0135
3520.00,0.0135
3519.00,0.0134
3518.00,0.0134
3517.00,0.0134
3516.00,0.0134
3515.00,0.0134
3514.00,0.0134
3513.00,0.0134
3512.00,0.0133
3511.00,0.0133
3510.00,0.0133
3509.00,0.0133
3508.00,0.0133
3507.00,0.0133
3506.00,0.0133
3505.00,0.0133
3504.00,0.0133
3503.00,0.0132
3502.00,0.0132
3501.00,0.0132
3500.00,0.0132
3499.00,0.0131
3498.00,0.0131
3497.00,0.0131
3496.00,0.0131
3495.00,0.0131
3494.00,0.0131
3493.00,0.0131
3492.00,0.0130
3491.00,0.0130
3490.00,0.0130
3489.00,0.0130
3488.00,0.0129
3487.00,0.0129
3486.00,0.0129
3485.00,0.0129
3484.00,0.0129
3483.00,0.0129
3482.00,0.0129
3481.00,0.0129
3480.00,0.0129
3479.00,0.0128
3478.00,0.0128
3477.00,0.0128
3476.00,0.0128
3475.00,0.0128
3474.00,0.0128
3473.00,0.0128
3472.00,0.0128
3471.00,0.0128
3470.00,0.0127
3469.00,0.0127
3468.00,0.0127
3467.00,0.0127
3466.00,0.0127
3465.00,0.0127
3464.00,0.0127
3463.00,0.0127
3462.00,0.0127
3461.00,0.0127
3460.00,0.0127
3459.00,0.0127
3458.00,0.0126
3457.00,0.0126
3456.00,0.0126
3455.00,0.0126
3454.00,0.0126
3453.00,0.0126
3452.00,0.0126
3451.00,0.0126
3450.00,0.0126
3449.00,0.0126
3448.00,0.0126
3447.00,0.0126
3446.00,0.0127
3445.00,0.0127
3444.00,0.0127
3443.00,0.0127
3442.00,0.0127
3441.00,0.0128
3440.00,0.0128
3439.00,0.0128
3438.00,0.0129
3437.00,0.0129
3436.00,0.0129
3435.00,0.0130
3434.00,0.0130
3433.00,0.0130
3432.00,0.0131
3431.00,0.0131
3430.00,0.0131
3429.00,0.0132
3428.00,0.0132
3427.00,0.0132
3426.00,0.0133
3425.00,0.0133
3424.00,0.0134
3423.00,0.0134
3422.00,0.0135
3421.00,0.0135
3420.00,0.0136
3419.00,0.0137
3418.00,0.0138
3417.00,0.0139
3416.00,0.0140
3415.00,0.0141
3414.00,0.0142
3413.00,0.0144
3412.00,0.0145
3411.00,0.0147
3410.00,0.0148
3409.00,0.0150
3408.00,0.0152
3407.00,0.0153
3406.00,0.0155
3405.00,0.0158
3404.00,0.0160
3403.00,0.0163
3402.00,0.0165
3401.00,0.0168
3400.00,0.0171
3399.00,0.0175
3398.00,0.0178
3397.00,0.0183
3396.00,0.0187
3395.00,0.0192
3394.00,0.0197
3393.00,0.0202
3392.00,0.0208
3391.00,0.0214
3390.00,0.0221
3389.00,0.0229
3388.00,0.0237
3387.00,0.0245
3386.00,0.0254
3385.00,0.0264
3384.00,0.0275
3383.00,0.0286
3382.00,0.0299
3381.00,0.0312
3380.00,0.0326
3379.00,0.0340
3378.00,0.0356
3377.00,0.0371
3376.00,0.0387
3375.00,0.0403
3374.00,0.0420
3373.00,0.0436
3372.00,0.0451
3371.00,0.0467
3370.00,0.0481
3369.00,0.0495
3368.00,0.0507
3367.00,0.0519
3366.00,0.0529
3365.00,0.0538
3364.00,0.0545
3363.00,0.0551
3362.00,0.0556
3361.00,0.0559
3360.00,0.0561
3359.00,0.0563
3358.00,0.0563
3357.00,0.0562
3356.00,0.0561
3355.00,0.0558
3354.00,0.0556
3353.00,0.0553
3352.00,0.0549
3351.00,0.0545
3350.00,0.0541
3349.00,0.0537
3348.00,0.0532
3347.00,0.0527
3346.00,0.0522
3345.00,0.0517
3344.00,0.0511
3343.00,0.0506
3342.00,0.0500
3341.00,0.0495
3340.00,0.0489
3339.00,0.0483
3338.00,0.0477
3337.00,0.0471
3336.00,0.0465
3335.00,0.0459
3334.00,0.0453
3333.00,0.0447
3332.00,0.0441
3331.00,0.0435
3330.00,0.0430
3329.00,0.0424
3328.00,0.0419
3327.00,0.0414
3326.00,0.0409
3325.00,0.0405
3324.00,0.0400
3323.00,0.0397
3322.00,0.0393
3321.00,0.0389
3320.00,0.0386
3319.00,0.0383
3318.00,0.0379
3317.00,0.0377
3316.00,0.0374
3315.00,0.0372
3314.00,0.0370
3313.00,0.0368
3312.00,0.0366
3311.00,0.0364
3310.00,0.0362
3309.00,0.0360
3308.00,0.0358
3307.00,0.0357
3306.00,0.0355
3305.00,0.0353
3304.00,0.0352
3303.00,0.0350
3302.00,0.0349
3301.00,0.0348
3300.00,0.0347
3299.00,0.0346
3298.00,0.0344
3297.00,0.0343
3296.00,0.0342
3295.00,0.0341
3294.00,0.0340
3293.00,0.0340
3292.00,0.0339
3291.00,0.0338
3290.00,0.0337
3289.00,0.0336
3288.00,0.0335
3287.00,0.0335
3286.00,0.0334
3285.00,0.0333
3284.00,0.0332
3283.00,0.0331
3282.00,0.0330
3281.00,0.0329
3280.00,0.0328
3279.00,0.0327
3278.00,0.0326
3277.00,0.0325
3276.00,0.0323
3275.00,0.0322
3274.00,0.0320
3273.00,0.0319
3272.00,0.0318
3271.00,0.0317
3270.00,0.0316
3269.00,0.0315
3268.00,0.0314
3267.00,0.0313
3266.00,0.0313
3265.00,0.0312
3264.00,0.0312
3263.00,0.0311
3262.00,0.0311
3261.00,0.0311
3260.00,0.0311
3259.00,0.0311
3258.00,0.0311
3257.00,0.0311
3256.00,0.0311
3255.00,0.0311
3254.00,0.0312
3253.00,0.0312
3252.00,0.0313
3251.00,0.0313
3250.00,0.0314
3249.00,0.0314
3248.00,0.0315
3247.00,0.0316
3246.00,0.0317
3245.00,0.0318
3244.00,0.0319
3243.00,0.0320
3242.00,0.0321
3241.00,0.0321
3240.00,0.0322
3239.00,0.0323
3238.00,0.0324
3237.00,0.0324
3236.00,0.0325
3235.00,0.0325
3234.00,0.0326
3233.00,0.0327
3232.00,0.0328
3231.00,0.0329
3230.00,0.0330
3229.00,0.0331
3228.00,0.0332
3227.00,0.0333
3226.00,0.0333
3225.00,0.0334
3224.00,0.0335
3223.00,0.0336
3222.00,0.0337
3221.00,0.0337
3220.00,0.0338
3219.00,0.0339
3218.00,0.0340
3217.00,0.0341
3216.00,0.0342
3215.00,0.0343
3214.00,0.0344
3213.00,0.0345
3212.00,0.0345
3211.00,0.0346
3210.00,0.0347
3209.00,0.0348
3208.00,0.0350
3207.00,0.0351
3206.00,0.0352
3205.00,0.0353
3204.00,0.0354
3203.00,0.0356
3202.00,0.0357
3201.00,0.0359
3200.00,0.0361
3199.00,0.0363
3198.00,0.0365
3197.00,0.0367
3196.00,0.0370
3195.00,0.0372
3194.00,0.0375
3193.00,0.0378
3192.00,0.0381
3191.00,0.0384
3190.00,0.0387
3189.00,0.0390
3188.00,0.0394
3187.00,0.0398
3186.00,0.0401
3185.00,0.0405
3184.00,0.0408
3183.00,0.0411
3182.00,0.0414
3181.00,0.0417
3180.00,0.0420
3179.00,0.0423
3178.00,0.0426
3177.00,0.0430
3176.00,0.0433
3175.00,0.0435
3174.00,0.0438
3173.00,0.0441
3172.00,0.0444
3171.00,0.0447
3170.00,0.0450
3169.00,0.0452
3168.00,0.0455
3167.00,0.0457
3166.00,0.0459
3165.00,0.0461
3164.00,0.0463
3163.00,0.0465
3162.00,0.0467
3161.00,0.0469
3160.00,0.0470
3159.00,0.0472
3158.00,0.0473
3157.00,0.0475
3156.00,0.0476
3155.00,0.0478
3154.00,0.0479
3153.00,0.0480
3152.00,0.0481
3151.00,0.0482
3150.00,0.0482
3149.00,0.0481
3148.00,0.0481
3147.00,0.0480
3146.00,0.0478
3145.00,0.0477
3144.00,0.0475
3143.00,0.0473
3142.00,0.0471
3141.00,0.0469
3140.00,0.0467
3139.00,0.0465
3138.00,0.0462
3137.00,0.0460
3136.00,0.0457
3135.00,0.0455
3134.00,0.0452
3133.00,0.0450
3132.00,0.0447
3131.00,0.0445
3130.00,0.0443
3129.00,0.0440
3128.00,0.0438
3127.00,0.0435
3126.00,0.0433
3125.00,0.0431
3124.00,0.0429
3123.00,0.0427
3122.00,0.0425
3121.00,0.0423
3120.00,0.0420
3119.00,0.0418
3118.00,0.0416
3117.00,0.0414
3116.00,0.0412
3115.00,0.0410
3114.00,0.0408
3113.00,0.0406
3112.00,0.0404
3111.00,0.0402
3110.00,0.0400
3109.00,0.0399
3108.00,0.0397
3107.00,0.0395
3106.00,0.0393
3105.00,0.0392
3104.00,0.0390
3103.00,0.0389
3102.00,0.0388
3101.00,0.0386
3100.00,0.0385
3099.00,0.0384
3098.00,0.0383
3097.00,0.0381
3096.00,0.0380
3095.00,0.0379
3094.00,0.0379
3093.00,0.0378
3092.00,0.0377
3091.00,0.0376
3090.00,0.0375
3089.00,0.0373
3088.00,0.0372
3087.00,0.0370
3086.00,0.0369
3085.00,0.0367
3084.00,0.0366
3083.00,0.0365
3082.00,0.0364
3081.00,0.0363
3080.00,0.0362
3079.00,0.0361
3078.00,0.0360
3077.00,0.0359
3076.00,0.0359
3075.00,0.0359
3074.00,0.0359
3073.00,0.0359
3072.00,0.0359
3071.00,0.0360
3070.00,0.0360
3069.00,0.0360
3068.00,0.0361
3067.00,0.0361
3066.00,0.0361
3065.00,0.0362
3064.00,0.0363
3063.00,0.0364
3062.00,0.0366
3061.00,0.0367
3060.00,0.0367
3059.00,0.0367
3058.00,0.0366
3057.00,0.0365
3056.00,0.0363
3055.00,0.0361
3054.00,0.0359
3053.00,0.0357
3052.00,0.0355
3051.00,0.0354
3050.00,0.0352
3049.00,0.0350
3048.00,0.0348
3047.00,0.0346
3046.00,0.0345
3045.00,0.0344
3044.00,0.0342
3043.00,0.0341
3042.00,0.0340
3041.00,0.0339
3040.00,0.0338
3039.00,0.0336
3038.00,0.0335
3037.00,0.0335
3036.00,0.0334
3035.00,0.0333
3034.00,0.0333
3033.00,0.0332
3032.00,0.0331
3031.00,0.0330
3030.00,0.0329
3029.00,0.0328
3028.00,0.0328
3027.00,0.0327
3026.00,0.0326
3025.00,0.0325
3024.00,0.0324
3023.00,0.0323
3022.00,0.0323
3021.00,0.0322
3020.00,0.0321
3019.00,0.0320
3018.00,0.0320
3017.00,0.0319
3016.00,0.0318
3015.00,0.0318
3014.00,0.0317
3013.00,0.0316
3012.00,0.0315
3011.00,0.0314
3010.00,0.0313
3009.00,0.0312
3008.00,0.0311
3007.00,0.0310
3006.00,0.0309
3005.00,0.0307
3004.00,0.0306
3003.00,0.0305
3002.00,0.0303
3001.00,0.0302
3000.00,0.0301
2999.00,0.0299
2998.00,0.0298
2997.00,0.0297
2996.00,0.0296
2995.00,0.0295
2994.00,0.0294
2993.00,0.0293
2992.00,0.0292
2991.00,0.0291
2990.00,0.0290
2989.00,0.0290
2988.00,0.0289
2987.00,0.0289
2986.00,0.0288
2985.00,0.0287
2984.00,0.0286
2983.00,0.0285
2982.00,0.0284
2981.00,0.0283
2980.00,0.0282
2979.00,0.0281
2978.00,0.0280
2977.00,0.0279
2976.00,0.0278
2975.00,0.0277
2974.00,0.0276
2973.00,0.0275
2972.00,0.0274
2971.00,0.0273
2970.00,0.0272
2969.00,0.0271
2968.00,0.0270
2967.00,0.0269
2966.00,0.0268
2965.00,0.0267
2964.00,0.0266
2963.00,0.0265
2962.00,0.0264
2961.00,0.0263
2960.00,0.0263
2959.00,0.0262
2958.00,0.0261
2957.00,0.0260
2956.00,0.0259
2955.00,0.0259
2954.00,0.0258
2953.00,0.0257
2952.00,0.0257
2951.00,0.0256
2950.00,0.0256
2949.00,0.0255
2948.00,0.0254
2947.00,0.0254
2946.00,0.0253
2945.00,0.0253
2944.00,0.0252
2943.00,0.0252
2942.00,0.0251
2941.00,0.0250
2940.00,0.0250
2939.00,0.0249
2938.00,0.0249
2937.00,0.0248
2936.00,0.0248
2935.00,0.0247
2934.00,0.0247
2933.00,0.0246
2932.00,0.0246
2931.00,0.0245
2930.00,0.0245
2929.00,0.0245
2928.00,0.0244
2927.00,0.0244
2926.00,0.0244
2925.00,0.0243
2924.00,0.0242
2923.00,0.0242
2922.00,0.0241
2921.00,0.0241
2920.00,0.0240
2919.00,0.0240
2918.00,0.0240
2917.00,0.0240
2916.00,0.0239
2915.00,0.0239
2914.00,0.0239
2913.00,0.0239
2912.00,0.0238
2911.00,0.0238
2910.00,0.0238
2909.00,0.0238
2908.00,0.0237
2907.00,0.0237
2906.00,0.0237
2905.00,0.0237
2904.00,0.0237
2903.00,0.0236
2902.00,0.0236
2901.00,0.0236
2900.00,0.0236
2899.00,0.0236
2898.00,0.0236
2897.00,0.0235
2896.00,0.0235
2895.00,0.0235
2894.00,0.0234
2893.00,0.0234
2892.00,0.0234
2891.00,0.0234
2890.00,0.0234
2889.00,0.0234
2888.00,0.0234
2887.00,0.0234
2886.00,0.0234
2885.00,0.0234
2884.00,0.0234
2883.00,0.0233
2882.00,0.0233
2881.00,0.0233
2880.00,0.0233
2879.00,0.0232
2878.00,0.0232
2877.00,0.0232
2876.00,0.0231
2875.00,0.0231
2874.00,0.0230
2873.00,0.0229
2872.00,0.0229
2871.00,0.0228
2870.00,0.0228
2869.00,0.0227
2868.00,0.0227
2867.00,0.0227
2866.00,0.0226
2865.00,0.0226
2864.00,0.0226
2863.00,0.0226
2862.00,0.0225
2861.00,0.0225
2860.00,0.0224
2859.00,0.0224
2858.00,0.0224
2857.00,0.0224
2856.00,0.0224
2855.00,0.0224
2854.00,0.0224
2853.00,0.0225
2852.00,0.0225
2851.00,0.0225
2850.00,0.0225
2849.00,0.0225
2848.00,0.0225
2847.00,0.0226
2846.00,0.0226
2845.00,0.0226
2844.00,0.0226
2843.00,0.0226
2842.00,0.0226
2841.00,0.0226
2840.00,0.0226
2839.00,0.0226
2838.00,0.0226
2837.00,0.0227
2836.00,0.0227
2835.00,0.0227
2834.00,0.0228
2833.00,0.0228
2832.00,0.0228
2831.00,0.0228
2830.00,0.0229
2829.00,0.0229
2828.00,0.0229
2827.00,0.0229
2826.00,0.0229
2825.00,0.0229
2824.00,0.0229
2823.00,0.0229
2822.00,0.0229
2821.00,0.0229
2820.00,0.0229
2819.00,0.0229
2818.00,0.0229
2817.00,0.0229
2816.00,0.0229
2815.00,0.0229
2814.00,0.0229
2813.00,0.0228
2812.00,0.0228
2811.00,0.0229
2810.00,0.0229
2809.00,0.0229
2808.00,0.0229
2807.00,0.0230
2806.00,0.0230
2805.00,0.0231
2804.00,0.0231
2803.00,0.0232
2802.00,0.0233
2801.00,0.0234
2800.00,0.0235
2799.00,0.0236
2798.00,0.0237
2797.00,0.0238
2796.00,0.0240
2795.00,0.0242
2794.00,0.0244
2793.00,0.0246
2792.00,0.0248
2791.00,0.0250
2790.00,0.0251
2789.00,0.0253
2788.00,0.0255
2787.00,0.0256
2786.00,0.0257
2785.00,0.0257
2784.00,0.0257
2783.00,0.0257
2782.00,0.0256
2781.00,0.0256
2780.00,0.0255
2779.00,0.0254
2778.00,0.0253
2777.00,0.0252
2776.00,0.0251
2775.00,0.0251
2774.00,0.0250
2773.00,0.0250
2772.00,0.0249
2771.00,0.0249
2770.00,0.0248
2769.00,0.0248
2768.00,0.0248
2767.00,0.0247
2766.00,0.0247
2765.00,0.0246
2764.00,0.0245
2763.00,0.0245
2762.00,0.0244
2761.00,0.0243
2760.00,0.0242
2759.00,0.0241
2758.00,0.0240
2757.00,0.0239
2756.00,0.0238
2755.00,0.0238
2754.00,0.0237
2753.00,0.0236
2752.00,0.0235
2751.00,0.0234
2750.00,0.0234
2749.00,0.0233
2748.00,0.0232
2747.00,0.0232
2746.00,0.0231
2745.00,0.0230
2744.00,0.0230
2743.00,0.0230
2742.00,0.0229
2741.00,0.0229
2740.00,0.0229
2739.00,0.0229
2738.00,0.0229
2737.00,0.0229
2736.00,0.0229
2735.00,0.0229
2734.00,0.0229
2733.00,0.0229
2732.00,0.0229
2731.00,0.0229
2730.00,0.0229
2729.00,0.0229
2728.00,0.0228
2727.00,0.0228
2726.00,0.0228
2725.00,0.0228
2724.00,0.0227
2723.00,0.0227
2722.00,0.0226
2721.00,0.0226
2720.00,0.0226
2719.00,0.0225
2718.00,0.0225
2717.00,0.0224
2716.00,0.0224
2715.00,0.0223
2714.00,0.0223
2713.00,0.0222
2712.00,0.0222
2711.00,0.0222
2710.00,0.0221
2709.00,0.0221
2708.00,0.0220
2707.00,0.0220
2706.00,0.0219
2705.00,0.0219
2704.00,0.0218
2703.00,0.0218
2702.00,0.0218
2701.00,0.0217
2700.00,0.0217
2699.00,0.0217
2698.00,0.0216
2697.00,0.0216
2696.00,0.0216
2695.00,0.0215
2694.00,0.0215
2693.00,0.0215
2692.00,0.0214
2691.00,0.0214
2690.00,0.0214
2689.00,0.0214
2688.00,0.0213
2687.00,0.0213
2686.00,0.0213
2685.00,0.0212
2684.00,0.0212
2683.00,0.0212
2682.00,0.0212
2681.00,0.0211
2680.00,0.0211
2679.00,0.0211
2678.00,0.0210
2677.00,0.0210
2676.00,0.0209
2675.00,0.0209
2674.00,0.0209
2673.00,0.0209
2672.00,0.0209
2671.00,0.0208
2670.00,0.0208
2669.00,0.0208
2668.00,0.0208
2667.00,0.0208
2666.00,0.0208
2665.00,0.0208
2664.00,0.0209
2663.00,0.0209
2662.00,0.0209
2661.00,0.0209
2660.00,0.0209
2659.00,0.0209
2658.00,0.0209
2657.00,0.0209
2656.00,0.0209
2655.00,0.0209
2654.00,0.0209
2653.00,0.0209
2652.00,0.0209
2651.00,0.0208
2650.00,0.0208
2649.00,0.0208
2648.00,0.0207
2647.00,0.0207
2646.00,0.0207
2645.00,0.0206
2644.00,0.0206
2643.00,0.0206
2642.00,0.0206
2641.00,0.0206
2640.00,0.0206
2639.00,0.0206
2638.00,0.0205
2637.00,0.0205
2636.00,0.0205
2635.00,0.0205
2634.00,0.0205
2633.00,0.0204
2632.00,0.0204
2631.00,0.0204
2630.00,0.0204
2629.00,0.0204
2628.00,0.0204
2627.00,0.0204
2626.00,0.0204
2625.00,0.0204
2624.00,0.0204
2623.00,0.0204
2622.00,0.0203
2621.00,0.0203
2620.00,0.0203
2619.00,0.0202
2618.00,0.0202
2617.00,0.0202
2616.00,0.0202
2615.00,0.0202
2614.00,0.0202
2613.00,0.0202
2612.00,0.0202
2611.00,0.0202
2610.00,0.0201
2609.00,0.0201
2608.00,0.0201
2607.00,0.0201
2606.00,0.0201
2605.00,0.0200
2604.00,0.0200
2603.00,0.0200
2602.00,0.0199
2601.00,0.0199
2600.00,0.0199
2599.00,0.0199
2598.00,0.0198
2597.00,0.0198
2596.00,0.0198
2595.00,0.0197
2594.00,0.0197
2593.00,0.0197
2592.00,0.0197
2591.00,0.0197
2590.00,0.0197
2589.00,0.0197
2588.00,0.0197
2587.00,0.0196
2586.00,0.0196
2585.00,0.0196
2584.00,0.0196
2583.00,0.0196
2582.00,0.0195
2581.00,0.0195
2580.00,0.0195
2579.00,0.0195
2578.00,0.0195
2577.00,0.0194
2576.00,0.0194
2575.00,0.0194
2574.00,0.0194
2573.00,0.0194
2572.00,0.0194
2571.00,0.0194
2570.00,0.0194
2569.00,0.0193
2568.00,0.0193
2567.00,0.0193
2566.00,0.0193
2565.00,0.0192
2564.00,0.0193
2563.00,0.0193
2562.00,0.0193
2561.00,0.0192
2560.00,0.0192
2559.00,0.0192
2558.00,0.0192
2557.00,0.0192
2556.00,0.0192
2555.00,0.0192
2554.00,0.0192
2553.00,0.0192
2552.00,0.0192
2551.00,0.0192
2550.00,0.0191
2549.00,0.0191
2548.00,0.0191
2547.00,0.0191
2546.00,0.0191
2545.00,0.0191
2544.00,0.0191
2543.00,0.0191
2542.00,0.0191
2541.00,0.0191
2540.00,0.0191
2539.00,0.0191
2538.00,0.0190
2537.00,0.0190
2536.00,0.0190
2535.00,0.0190
2534.00,0.0190
2533.00,0.0190
2532.00,0.0190
2531.00,0.0190
2530.00,0.0190
2529.00,0.0190
2528.00,0.0190
2527.00,0.0190
2526.00,0.0191
2525.00,0.0191
2524.00,0.0191
2523.00,0.0191
2522.00,0.0191
2521.00,0.0191
2520.00,0.0192
2519.00,0.0192
2518.00,0.0192
2517.00,0.0192
2516.00,0.0192
2515.00,0.0192
2514.00,0.0192
2513.00,0.0192
2512.00,0.0192
2511.00,0.0192
2510.00,0.0192
2509.00,0.0191
2508.00,0.0191
2507.00,0.0191
2506.00,0.0190
2505.00,0.0190
2504.00,0.0189
2503.00,0.0189
2502.00,0.0189
2501.00,0.0188
2500.00,0.0188
2499.00,0.0188
2498.00,0.0188
2497.00,0.0188
2496.00,0.0188
2495.00,0.0188
2494.00,0.0188
2493.00,0.0187
2492.00,0.0187
2491.00,0.0187
2490.00,0.0187
2489.00,0.0187
2488.00,0.0187
2487.00,0.0187
2486.00,0.0187
2485.00,0.0187
2484.00,0.0187
2483.00,0.0187
2482.00,0.0186
2481.00,0.0186
2480.00,0.0186
2479.00,0.0187
2478.00,0.0186
2477.00,0.0186
2476.00,0.0186
2475.00,0.0186
2474.00,0.0186
2473.00,0.0187
2472.00,0.0187
2471.00,0.0187
2470.00,0.0187
2469.00,0.0187
2468.00,0.0187
2467.00,0.0187
2466.00,0.0188
2465.00,0.0188
2464.00,0.0188
2463.00,0.0188
2462.00,0.0188
2461.00,0.0188
2460.00,0.0188
2459.00,0.0188
2458.00,0.0188
2457.00,0.0188
2456.00,0.0188
2455.00,0.0188
2454.00,0.0188
2453.00,0.0187
2452.00,0.0187
2451.00,0.0187
2450.00,0.0186
2449.00,0.0186
2448.00,0.0186
2447.00,0.0186
2446.00,0.0186
2445.00,0.0186
2444.00,0.0186
2443.00,0.0185
2442.00,0.0185
2441.00,0.0185
2440.00,0.0184
2439.00,0.0184
2438.00,0.0184
2437.00,0.0184
2436.00,0.0184
2435.00,0.0183
2434.00,0.0183
2433.00,0.0183
2432.00,0.0182
2431.00,0.0182
2430.00,0.0181
2429.00,0.0181
2428.00,0.0181
2427.00,0.0181
2426.00,0.0181
2425.00,0.0181
2424.00,0.0181
2423.00,0.0181
2422.00,0.0181
2421.00,0.0181
2420.00,0.0181
2419.00,0.0181
2418.00,0.0181
2417.00,0.0181
2416.00,0.0181
2415.00,0.0181
2414.00,0.0182
2413.00,0.0182
2412.00,0.0182
2411.00,0.0182
2410.00,0.0181
2409.00,0.0181
2408.00,0.0181
2407.00,0.0180
2406.00,0.0180
2405.00,0.0180
2404.00,0.0180
2403.00,0.0180
2402.00,0.0180
2401.00,0.0180
2400.00,0.0180
2399.00,0.0180
2398.00,0.0180
2397.00,0.0180
2396.00,0.0180
2395.00,0.0179
2394.00,0.0179
2393.00,0.0179
2392.00,0.0179
2391.00,0.0179
2390.00,0.0179
2389.00,0.0179
2388.00,0.0178
2387.00,0.0178
2386.00,0.0177
2385.00,0.0177
2384.00,0.0176
2383.00,0.0176
2382.00,0.0175
2381.00,0.0175
2380.00,0.0175
2379.00,0.0175
2378.00,0.0175
2377.00,0.0175
2376.00,0.0175
2375.00,0.0174
2374.00,0.0174
2373.00,0.0173
2372.00,0.0172
2371.00,0.0172
2370.00,0.0172
2369.00,0.0172
2368.00,0.0172
2367.00,0.0172
2366.00,0.0173
2365.00,0.0174
2364.00,0.0174
2363.00,0.0175
2362.00,0.0175
2361.00,0.0174
2360.00,0.0174
2359.00,0.0174
2358.00,0.0174
2357.00,0.0174
2356.00,0.0174
2355.00,0.0174
2354.00,0.0173
2353.00,0.0173
2352.00,0.0173
2351.00,0.0173
2350.00,0.0173
2349.00,0.0174
2348.00,0.0175
2347.00,0.0176
2346.00,0.0177
2345.00,0.0177
2344.00,0.0177
2343.00,0.0176
2342.00,0.0176
2341.00,0.0176
2340.00,0.0176
2339.00,0.0176
2338.00,0.0176
2337.00,0.0176
2336.00,0.0176
2335.00,0.0176
2334.00,0.0175
2333.00,0.0175
2332.00,0.0175
2331.00,0.0176
2330.00,0.0176
2329.00,0.0177
2328.00,0.0179
2327.00,0.0182
2326.00,0.0185
2325.00,0.0186
2324.00,0.0185
2323.00,0.0184
2322.00,0.0182
2321.00,0.0181
2320.00,0.0180
2319.00,0.0179
2318.00,0.0179
2317.00,0.0179
2316.00,0.0179
2315.00,0.0179
2314.00,0.0179
2313.00,0.0179
2312.00,0.0179
2311.00,0.0179
2310.00,0.0178
2309.00,0.0178
2308.00,0.0178
2307.00,0.0178
2306.00,0.0178
2305.00,0.0178
2304.00,0.0178
2303.00,0.0178
2302.00,0.0178
2301.00,0.0178
2300.00,0.0178
2299.00,0.0179
2298.00,0.0179
2297.00,0.0180
2296.00,0.0180
2295.00,0.0181
2294.00,0.0182
2293.00,0.0182
2292.00,0.0183
2291.00,0.0184
2290.00,0.0184
2289.00,0.0184
2288.00,0.0184
2287.00,0.0185
2286.00,0.0185
2285.00,0.0184
2284.00,0.0184
2283.00,0.0184
2282.00,0.0183
2281.00,0.0183
2280.00,0.0183
2279.00,0.0183
2278.00,0.0184
2277.00,0.0184
2276.00,0.0184
2275.00,0.0184
2274.00,0.0183
2273.00,0.0183
2272.00,0.0183
2271.00,0.0183
2270.00,0.0182
2269.00,0.0181
2268.00,0.0181
2267.00,0.0180
2266.00,0.0180
2265.00,0.0180
2264.00,0.0180
2263.00,0.0180
2262.00,0.0179
2261.00,0.0179
2260.00,0.0180
2259.00,0.0180
2258.00,0.0180
2257.00,0.0179
2256.00,0.0178
2255.00,0.0177
2254.00,0.0176
2253.00,0.0176
2252.00,0.0176
2251.00,0.0176
2250.00,0.0176
2249.00,0.0176
2248.00,0.0176
2247.00,0.0176
2246.00,0.0176
2245.00,0.0176
2244.00,0.0176
2243.00,0.0177
2242.00,0.0177
2241.00,0.0176
2240.00,0.0176
2239.00,0.0176
2238.00,0.0176
2237.00,0.0175
2236.00,0.0175
2235.00,0.0175
2234.00,0.0174
2233.00,0.0174
2232.00,0.0174
2231.00,0.0174
2230.00,0.0174
2229.00,0.0173
2228.00,0.0173
2227.00,0.0173
2226.00,0.0172
2225.00,0.0172
2224.00,0.0172
2223.00,0.0172
2222.00,0.0172
2221.00,0.0172
2220.00,0.0172
2219.00,0.0172
2218.00,0.0171
2217.00,0.0171
2216.00,0.0170
2215.00,0.0170
2214.00,0.0170
2213.00,0.0170
2212.00,0.0170
2211.00,0.0170
2210.00,0.0170
2209.00,0.0170
2208.00,0.0170
2207.00,0.0170
2206.00,0.0170
2205.00,0.0170
2204.00,0.0171
2203.00,0.0171
2202.00,0.0172
2201.00,0.0172
2200.00,0.0172
2199.00,0.0172
2198.00,0.0172
2197.00,0.0172
2196.00,0.0173
2195.00,0.0173
2194.00,0.0173
2193.00,0.0173
2192.00,0.0173
2191.00,0.0174
2190.00,0.0173
2189.00,0.0172
2188.00,0.0172
2187.00,0.0171
2186.00,0.0171
2185.00,0.0170
2184.00,0.0169
2183.00,0.0167
2182.00,0.0166
2181.00,0.0165
2180.00,0.0166
2179.00,0.0167
2178.00,0.0167
2177.00,0.0166
2176.00,0.0164
2175.00,0.0163
2174.00,0.0163
2173.00,0.0164
2172.00,0.0166
2171.00,0.0168
2170.00,0.0170
2169.00,0.0172
2168.00,0.0173
2167.00,0.0173
2166.00,0.0172
2165.00,0.0172
2164.00,0.0173
2163.00,0.0174
2162.00,0.0170
2161.00,0.0162
2160.00,0.0152
2159.00,0.0143
2158.00,0.0139
2157.00,0.0139
2156.00,0.0141
2155.00,0.0143
2154.00,0.0144
2153.00,0.0146
2152.00,0.0147
2151.00,0.0149
2150.00,0.0150
2149.00,0.0150
2148.00,0.0150
2147.00,0.0149
2146.00,0.0149
2145.00,0.0149
2144.00,0.0149
2143.00,0.0149
2142.00,0.0148
2141.00,0.0148
2140.00,0.0148
2139.00,0.0149
2138.00,0.0148
2137.00,0.0146
2136.00,0.0144
2135.00,0.0142
2134.00,0.0141
2133.00,0.0142
2132.00,0.0144
2131.00,0.0146
2130.00,0.0147
2129.00,0.0148
2128.00,0.0149
2127.00,0.0150
2126.00,0.0151
2125.00,0.0151
2124.00,0.0152
2123.00,0.0152
2122.00,0.0153
2121.00,0.0154
2120.00,0.0155
2119.00,0.0156
2118.00,0.0156
2117.00,0.0157
2116.00,0.0158
2115.00,0.0158
2114.00,0.0157
2113.00,0.0157
2112.00,0.0156
2111.00,0.0157
2110.00,0.0157
2109.00,0.0157
2108.00,0.0157
2107.00,0.0157
2106.00,0.0157
2105.00,0.0156
2104.00,0.0156
2103.00,0.0156
2102.00,0.0156
2101.00,0.0156
2100.00,0.0156
2099.00,0.0156
2098.00,0.0155
2097.00,0.0154
2096.00,0.0152
2095.00,0.0151
2094.00,0.0151
2093.00,0.0152
2092.00,0.0153
2091.00,0.0154
2090.00,0.0155
2089.00,0.0155
2088.00,0.0155
2087.00,0.0156
2086.00,0.0156
2085.00,0.0156
2084.00,0.0156
2083.00,0.0155
2082.00,0.0155
2081.00,0.0155
2080.00,0.0155
2079.00,0.0155
2078.00,0.0154
2077.00,0.0154
2076.00,0.0154
2075.00,0.0154
2074.00,0.0154
2073.00,0.0154
2072.00,0.0154
2071.00,0.0154
2070.00,0.0154
2069.00,0.0154
2068.00,0.0155
2067.00,0.0155
2066.00,0.0154
2065.00,0.0153
2064.00,0.0152
2063.00,0.0151
2062.00,0.0150
2061.00,0.0149
2060.00,0.0149
2059.00,0.0150
2058.00,0.0150
2057.00,0.0149
2056.00,0.0149
2055.00,0.0149
2054.00,0.0150
2053.00,0.0153
2052.00,0.0156
2051.00,0.0156
2050.00,0.0154
2049.00,0.0152
2048.00,0.0151
2047.00,0.0151
2046.00,0.0150
2045.00,0.0150
2044.00,0.0151
2043.00,0.0151
2042.00,0.0150
2041.00,0.0150
2040.00,0.0150
2039.00,0.0150
2038.00,0.0150
2037.00,0.0149
2036.00,0.0149
2035.00,0.0148
2034.00,0.0146
2033.00,0.0145
2032.00,0.0145
2031.00,0.0145
2030.00,0.0145
2029.00,0.0144
2028.00,0.0144
2027.00,0.0144
2026.00,0.0143
2025.00,0.0143
2024.00,0.0143
2023.00,0.0144
2022.00,0.0143
2021.00,0.0143
2020.00,0.0142
2019.00,0.0141
2018.00,0.0140
2017.00,0.0138
2016.00,0.0138
2015.00,0.0139
2014.00,0.0139
2013.00,0.0139
2012.00,0.0140
2011.00,0.0141
2010.00,0.0141
2009.00,0.0139
2008.00,0.0137
2007.00,0.0135
2006.00,0.0133
2005.00,0.0133
2004.00,0.0134
2003.00,0.0137
2002.00,0.0139
2001.00,0.0140
2000.00,0.0141
1999.00,0.0141
1998.00,0.0142
1997.00,0.0142
1996.00,0.0143
1995.00,0.0144
1994.00,0.0144
1993.00,0.0145
1992.00,0.0146
1991.00,0.0148
1990.00,0.0148
1989.00,0.0149
1988.00,0.0150
1987.00,0.0151
1986.00,0.0152
1985.00,0.0152
1984.00,0.0154
1983.00,0.0156
1982.00,0.0157
1981.00,0.0156
1980.00,0.0153
1979.00,0.0148
1978.00,0.0143
1977.00,0.0139
1976.00,0.0138
1975.00,0.0138
1974.00,0.0137
1973.00,0.0138
1972.00,0.0139
1971.00,0.0140
1970.00,0.0140
1969.00,0.0140
1968.00,0.0140
1967.00,0.0141
1966.00,0.0141
1965.00,0.0141
1964.00,0.0142
1963.00,0.0143
1962.00,0.0142
1961.00,0.0141
1960.00,0.0141
1959.00,0.0141
1958.00,0.0141
1957.00,0.0140
1956.00,0.0140
1955.00,0.0140
1954.00,0.0139
1953.00,0.0138
1952.00,0.0138
1951.00,0.0138
1950.00,0.0138
1949.00,0.0137
1948.00,0.0138
1947.00,0.0138
1946.00,0.0137
1945.00,0.0137
1944.00,0.0137
1943.00,0.0138
1942.00,0.0139
1941.00,0.0139
1940.00,0.0140
1939.00,0.0140
1938.00,0.0140
1937.00,0.0140
1936.00,0.0140
1935.00,0.0141
1934.00,0.0141
1933.00,0.0142
1932.00,0.0142
1931.00,0.0143
1930.00,0.0143
1929.00,0.0143
1928.00,0.0144
1927.00,0.0144
1926.00,0.0143
1925.00,0.0142
1924.00,0.0141
1923.00,0.0140
1922.00,0.0140
1921.00,0.0140
1920.00,0.0140
1919.00,0.0140
1918.00,0.0139
1917.00,0.0139
1916.00,0.0139
1915.00,0.0139
1914.00,0.0139
1913.00,0.0139
1912.00,0.0139
1911.00,0.0139
1910.00,0.0139
1909.00,0.0139
1908.00,0.0140
1907.00,0.0140
1906.00,0.0141
1905.00,0.0141
1904.00,0.0141
1903.00,0.0141
1902.00,0.0141
1901.00,0.0140
1900.00,0.0139
1899.00,0.0138
1898.00,0.0136
1897.00,0.0135
1896.00,0.0134
1895.00,0.0133
1894.00,0.0133
1893.00,0.0132
1892.00,0.0132
1891.00,0.0131
1890.00,0.0131
1889.00,0.0131
1888.00,0.0131
1887.00,0.0131
1886.00,0.0130
1885.00,0.0130
1884.00,0.0129
1883.00,0.0130
1882.00,0.0130
1881.00,0.0130
1880.00,0.0130
1879.00,0.0130
1878.00,0.0130
1877.00,0.0129
1876.00,0.0129
1875.00,0.0129
1874.00,0.0129
1873.00,0.0130
1872.00,0.0130
1871.00,0.0130
1870.00,0.0129
1869.00,0.0129
1868.00,0.0128
1867.00,0.0128
1866.00,0.0127
1865.00,0.0127
1864.00,0.0127
1863.00,0.0127
1862.00,0.0126
1861.00,0.0126
1860.00,0.0126
1859.00,0.0126
1858.00,0.0125
1857.00,0.0125
1856.00,0.0124
1855.00,0.0124
1854.00,0.0124
1853.00,0.0123
1852.00,0.0123
1851.00,0.0123
1850.00,0.0122
1849.00,0.0122
1848.00,0.0122
1847.00,0.0121
1846.00,0.0120
1845.00,0.0119
1844.00,0.0120
1843.00,0.0120
1842.00,0.0120
1841.00,0.0119
1840.00,0.0118
1839.00,0.0118
1838.00,0.0118
1837.00,0.0117
1836.00,0.0117
1835.00,0.0118
1834.00,0.0117
1833.00,0.0117
1832.00,0.0116
1831.00,0.0116
1830.00,0.0115
1829.00,0.0116
1828.00,0.0116
1827.00,0.0117
1826.00,0.0117
1825.00,0.0117
1824.00,0.0117
1823.00,0.0117
1822.00,0.0117
1821.00,0.0116
1820.00,0.0116
1819.00,0.0115
1818.00,0.0114
1817.00,0.0114
1816.00,0.0114
1815.00,0.0115
1814.00,0.0115
1813.00,0.0115
1812.00,0.0116
1811.00,0.0116
1810.00,0.0117
1809.00,0.0117
1808.00,0.0118
1807.00,0.0119
1806.00,0.0119
1805.00,0.0120
1804.00,0.0120
1803.00,0.0121
1802.00,0.0121
1801.00,0.0121
1800.00,0.0121
1799.00,0.0121
1798.00,0.0120
1797.00,0.0120
1796.00,0.0119
1795.00,0.0118
1794.00,0.0116
1793.00,0.0115
1792.00,0.0115
1791.00,0.0115
1790.00,0.0114
1789.00,0.0114
1788.00,0.0113
1787.00,0.0113
1786.00,0.0113
1785.00,0.0112
1784.00,0.0112
1783.00,0.0111
1782.00,0.0110
1781.00,0.0110
1780.00,0.0110
1779.00,0.0110
1778.00,0.0109
1777.00,0.0109
1776.00,0.0109
1775.00,0.0108
1774.00,0.0108
1773.00,0.0108
1772.00,0.0108
1771.00,0.0110
1770.00,0.0111
1769.00,0.0112
1768.00,0.0113
1767.00,0.0113
1766.00,0.0113
1765.00,0.0111
1764.00,0.0110
1763.00,0.0109
1762.00,0.0107
1761.00,0.0106
1760.00,0.0105
1759.00,0.0104
1758.00,0.0102
1757.00,0.0101
1756.00,0.0101
1755.00,0.0101
1754.00,0.0100
1753.00,0.0099
1752.00,0.0099
1751.00,0.0099
1750.00,0.0097
1749.00,0.0097
1748.00,0.0097
1747.00,0.0097
1746.00,0.0097
1745.00,0.0097
1744.00,0.0098
1743.00,0.0098
1742.00,0.0097
1741.00,0.0097
1740.00,0.0097
1739.00,0.0097
1738.00,0.0096
1737.00,0.0095
1736.00,0.0095
1735.00,0.0095
1734.00,0.0094
1733.00,0.0093
1732.00,0.0093
1731.00,0.0092
1730.00,0.0091
1729.00,0.0090
1728.00,0.0090
1727.00,0.0090
1726.00,0.0089
1725.00,0.0087
1724.00,0.0087
1723.00,0.0087
1722.00,0.0086
1721.00,0.0085
1720.00,0.0085
1719.00,0.0085
1718.00,0.0084
1717.00,0.0084
1716.00,0.0087
1715.00,0.0090
1714.00,0.0092
1713.00,0.0094
1712.00,0.0098
1711.00,0.0103
1710.00,0.0108
1709.00,0.0115
1708.00,0.0126
1707.00,0.0141
1706.00,0.0163
1705.00,0.0192
1704.00,0.0229
1703.00,0.0270
1702.00,0.0320
1701.00,0.0387
1700.00,0.0464
1699.00,0.0527
1698.00,0.0565
1697.00,0.0584
1696.00,0.0588
1695.00,0.0584
1694.00,0.0581
1693.00,0.0582
1692.00,0.0589
1691.00,0.0601
1690.00,0.0616
1689.00,0.0637
1688.00,0.0663
1687.00,0.0692
1686.00,0.0723
1685.00,0.0755
1684.00,0.0788
1683.00,0.0821
1682.00,0.0852
1681.00,0.0884
1680.00,0.0916
1679.00,0.0945
1678.00,0.0971
1677.00,0.0991
1676.00,0.1001
1675.00,0.0998
1674.00,0.0991
1673.00,0.0987
1672.00,0.0981
1671.00,0.0967
1670.00,0.0940
1669.00,0.0905
1668.00,0.0874
1667.00,0.0851
1666.00,0.0833
1665.00,0.0815
1664.00,0.0790
1663.00,0.0757
1662.00,0.0723
1661.00,0.0693
1660.00,0.0670
1659.00,0.0649
1658.00,0.0630
1657.00,0.0614
1656.00,0.0602
1655.00,0.0587
1654.00,0.0561
1653.00,0.0522
1652.00,0.0493
1651.00,0.0482
1650.00,0.0479
1649.00,0.0477
1648.00,0.0471
1647.00,0.0459
1646.00,0.0448
1645.00,0.0441
1644.00,0.0438
1643.00,0.0437
1642.00,0.0437
1641.00,0.0436
1640.00,0.0436
1639.00,0.0437
1638.00,0.0438
1637.00,0.0439
1636.00,0.0439
1635.00,0.0442
1634.00,0.0448
1633.00,0.0458
1632.00,0.0472
1631.00,0.0487
1630.00,0.0505
1629.00,0.0525
1628.00,0.0549
1627.00,0.0576
1626.00,0.0606
1625.00,0.0637
1624.00,0.0670
1623.00,0.0703
1622.00,0.0735
1621.00,0.0764
1620.00,0.0791
1619.00,0.0816
1618.00,0.0832
1617.00,0.0838
1616.00,0.0837
1615.00,0.0836
1614.00,0.0835
1613.00,0.0833
1612.00,0.0826
1611.00,0.0814
1610.00,0.0797
1609.00,0.0777
1608.00,0.0756
1607.00,0.0735
1606.00,0.0714
1605.00,0.0694
1604.00,0.0673
1603.00,0.0654
1602.00,0.0635
1601.00,0.0619
1600.00,0.0607
1599.00,0.0602
1598.00,0.0605
1597.00,0.0622
1596.00,0.0654
1595.00,0.0699
1594.00,0.0745
1593.00,0.0777
1592.00,0.0782
1591.00,0.0759
1590.00,0.0716
1589.00,0.0666
1588.00,0.0620
1587.00,0.0581
1586.00,0.0549
1585.00,0.0522
1584.00,0.0498
1583.00,0.0477
1582.00,0.0460
1581.00,0.0451
1580.00,0.0453
1579.00,0.0468
1578.00,0.0499
1577.00,0.0543
1576.00,0.0586
1575.00,0.0612
1574.00,0.0616
1573.00,0.0606
1572.00,0.0588
1571.00,0.0562
1570.00,0.0532
1569.00,0.0505
1568.00,0.0486
1567.00,0.0474
1566.00,0.0465
1565.00,0.0456
1564.00,0.0447
1563.00,0.0440
1562.00,0.0435
1561.00,0.0429
1560.00,0.0416
1559.00,0.0396
1558.00,0.0381
1557.00,0.0375
1556.00,0.0373
1555.00,0.0370
1554.00,0.0366
1553.00,0.0361
1552.00,0.0357
1551.00,0.0352
1550.00,0.0348
1549.00,0.0343
1548.00,0.0339
1547.00,0.0337
1546.00,0.0334
1545.00,0.0330
1544.00,0.0326
1543.00,0.0321
1542.00,0.0317
1541.00,0.0311
1540.00,0.0306
1539.00,0.0303
1538.00,0.0303
1537.00,0.0303
1536.00,0.0302
1535.00,0.0301
1534.00,0.0298
1533.00,0.0294
1532.00,0.0291
1531.00,0.0290
1530.00,0.0288
1529.00,0.0286
1528.00,0.0284
1527.00,0.0281
1526.00,0.0278
1525.00,0.0275
1524.00,0.0272
1523.00,0.0269
1522.00,0.0266
1521.00,0.0264
1520.00,0.0262
1519.00,0.0260
1518.00,0.0259
1517.00,0.0257
1516.00,0.0255
1515.00,0.0254
1514.00,0.0253
1513.00,0.0252
1512.00,0.0250
1511.00,0.0248
1510.00,0.0246
1509.00,0.0244
1508.00,0.0239
1507.00,0.0235
1506.00,0.0233
1505.00,0.0232
1504.00,0.0231
1503.00,0.0230
1502.00,0.0230
1501.00,0.0228
1500.00,0.0226
1499.00,0.0224
1498.00,0.0222
1497.00,0.0221
1496.00,0.0221
1495.00,0.0222
1494.00,0.0224
1493.00,0.0227
1492.00,0.0232
1491.00,0.0242
1490.00,0.0259
1489.00,0.0282
1488.00,0.0307
1487.00,0.0329
1486.00,0.0343
1485.00,0.0346
1484.00,0.0338
1483.00,0.0324
1482.00,0.0306
1481.00,0.0289
1480.00,0.0274
1479.00,0.0263
1478.00,0.0255
1477.00,0.0248
1476.00,0.0242
1475.00,0.0238
1474.00,0.0235
1473.00,0.0231
1472.00,0.0228
1471.00,0.0227
1470.00,0.0226
1469.00,0.0225
1468.00,0.0224
1467.00,0.0224
1466.00,0.0223
1465.00,0.0222
1464.00,0.0221
1463.00,0.0221
1462.00,0.0222
1461.00,0.0222
1460.00,0.0221
1459.00,0.0221
1458.00,0.0220
1457.00,0.0220
1456.00,0.0219
1455.00,0.0219
1454.00,0.0219
1453.00,0.0218
1452.00,0.0218
1451.00,0.0217
1450.00,0.0217
1449.00,0.0216
1448.00,0.0215
1447.00,0.0215
1446.00,0.0215
1445.00,0.0216
1444.00,0.0217
1443.00,0.0219
1442.00,0.0221
1441.00,0.0223
1440.00,0.0226
1439.00,0.0230
1438.00,0.0234
1437.00,0.0238
1436.00,0.0241
1435.00,0.0246
1434.00,0.0252
1433.00,0.0259
1432.00,0.0269
1431.00,0.0283
1430.00,0.0304
1429.00,0.0335
1428.00,0.0378
1427.00,0.0434
1426.00,0.0501
1425.00,0.0574
1424.00,0.0641
1423.00,0.0691
1422.00,0.0716
1421.00,0.0715
1420.00,0.0687
1419.00,0.0637
1418.00,0.0585
1417.00,0.0546
1416.00,0.0519
1415.00,0.0501
1414.00,0.0491
1413.00,0.0490
1412.00,0.0497
1411.00,0.0514
1410.00,0.0539
1409.00,0.0571
1408.00,0.0608
1407.00,0.0649
1406.00,0.0691
1405.00,0.0734
1404.00,0.0774
1403.00,0.0809
1402.00,0.0841
1401.00,0.0871
1400.00,0.0899
1399.00,0.0926
1398.00,0.0952
1397.00,0.0980
1396.00,0.1007
1395.00,0.1027
1394.00,0.1040
1393.00,0.1046
1392.00,0.1045
1391.00,0.1036
1390.00,0.1021
1389.00,0.0998
1388.00,0.0968
1387.00,0.0933
1386.00,0.0899
1385.00,0.0871
1384.00,0.0847
1383.00,0.0822
1382.00,0.0798
1381.00,0.0774
1380.00,0.0751
1379.00,0.0728
1378.00,0.0706
1377.00,0.0687
1376.00,0.0669
1375.00,0.0650
1374.00,0.0632
1373.00,0.0616
1372.00,0.0604
1371.00,0.0594
1370.00,0.0585
1369.00,0.0575
1368.00,0.0566
1367.00,0.0557
1366.00,0.0549
1365.00,0.0542
1364.00,0.0536
1363.00,0.0528
1362.00,0.0520
1361.00,0.0514
1360.00,0.0510
1359.00,0.0507
1358.00,0.0504
1357.00,0.0503
1356.00,0.0501
1355.00,0.0499
1354.00,0.0497
1353.00,0.0494
1352.00,0.0491
1351.00,0.0486
1350.00,0.0480
1349.00,0.0474
1348.00,0.0470
1347.00,0.0469
1346.00,0.0476
1345.00,0.0494
1344.00,0.0527
1343.00,0.0575
1342.00,0.0631
1341.00,0.0683
1340.00,0.0716
1339.00,0.0722
1338.00,0.0703
1337.00,0.0672
1336.00,0.0637
1335.00,0.0605
1334.00,0.0578
1333.00,0.0555
1332.00,0.0536
1331.00,0.0520
1330.00,0.0506
1329.00,0.0495
1328.00,0.0486
1327.00,0.0477
1326.00,0.0470
1325.00,0.0464
1324.00,0.0459
1323.00,0.0454
1322.00,0.0450
1321.00,0.0446
1320.00,0.0443
1319.00,0.0439
1318.00,0.0436
1317.00,0.0433
1316.00,0.0431
1315.00,0.0428
1314.00,0.0426
1313.00,0.0424
1312.00,0.0423
1311.00,0.0421
1310.00,0.0419
1309.00,0.0418
1308.00,0.0417
1307.00,0.0416
1306.00,0.0414
1305.00,0.0413
1304.00,0.0412
1303.00,0.0411
1302.00,0.0410
1301.00,0.0410
1300.00,0.0409
1299.00,0.0408
1298.00,0.0407
1297.00,0.0406
1296.00,0.0405
1295.00,0.0404
1294.00,0.0403
1293.00,0.0402
1292.00,0.0402
1291.00,0.0401
1290.00,0.0400
1289.00,0.0399
1288.00,0.0399
1287.00,0.0397
1286.00,0.0396
1285.00,0.0395
1284.00,0.0394
1283.00,0.0393
1282.00,0.0392
1281.00,0.0391
1280.00,0.0390
1279.00,0.0389
1278.00,0.0388
1277.00,0.0387
1276.00,0.0386
1275.00,0.0385
1274.00,0.0384
1273.00,0.0383
1272.00,0.0382
1271.00,0.0381
1270.00,0.0380
1269.00,0.0380
1268.00,0.0380
1267.00,0.0379
1266.00,0.0379
1265.00,0.0380
1264.00,0.0380
1263.00,0.0382
1262.00,0.0383
1261.00,0.0386
1260.00,0.0388
1259.00,0.0391
1258.00,0.0394
1257.00,0.0396
1256.00,0.0398
1255.00,0.0399
1254.00,0.0399
1253.00,0.0399
1252.00,0.0399
1251.00,0.0397
1250.00,0.0395
1249.00,0.0393
1248.00,0.0391
1247.00,0.0388
1246.00,0.0386
1245.00,0.0384
1244.00,0.0382
1243.00,0.0380
1242.00,0.0379
1241.00,0.0379
1240.00,0.0379
1239.00,0.0380
1238.00,0.0382
1237.00,0.0387
1236.00,0.0394
1235.00,0.0403
1234.00,0.0414
1233.00,0.0424
1232.00,0.0433
1231.00,0.0437
1230.00,0.0438
1229.00,0.0435
1228.00,0.0430
1227.00,0.0423
1226.00,0.0416
1225.00,0.0410
1224.00,0.0404
1223.00,0.0399
1222.00,0.0395
1221.00,0.0390
1220.00,0.0387
1219.00,0.0383
1218.00,0.0379
1217.00,0.0376
1216.00,0.0373
1215.00,0.0370
1214.00,0.0367
1213.00,0.0365
1212.00,0.0364
1211.00,0.0365
1210.00,0.0368
1209.00,0.0376
1208.00,0.0393
1207.00,0.0422
1206.00,0.0469
1205.00,0.0532
1204.00,0.0601
1203.00,0.0657
1202.00,0.0683
1201.00,0.0675
1200.00,0.0641
1199.00,0.0595
1198.00,0.0551
1197.00,0.0515
1196.00,0.0486
1195.00,0.0464
1194.00,0.0446
1193.00,0.0432
1192.00,0.0420
1191.00,0.0410
1190.00,0.0401
1189.00,0.0394
1188.00,0.0389
1187.00,0.0383
1186.00,0.0379
1185.00,0.0375
1184.00,0.0371
1183.00,0.0368
1182.00,0.0365
1181.00,0.0362
1180.00,0.0360
1179.00,0.0357
1178.00,0.0355
1177.00,0.0353
1176.00,0.0351
1175.00,0.0349
1174.00,0.0347
1173.00,0.0345
1172.00,0.0343
1171.00,0.0342
1170.00,0.0340
1169.00,0.0340
1168.00,0.0339
1167.00,0.0339
1166.00,0.0340
1165.00,0.0341
1164.00,0.0343
1163.00,0.0347
1162.00,0.0352
1161.00,0.0360
1160.00,0.0371
1159.00,0.0384
1158.00,0.0401
1157.00,0.0420
1156.00,0.0440
1155.00,0.0456
1154.00,0.0466
1153.00,0.0468
1152.00,0.0461
1151.00,0.0447
1150.00,0.0430
1149.00,0.0411
1148.00,0.0394
1147.00,0.0379
1146.00,0.0366
1145.00,0.0355
1144.00,0.0347
1143.00,0.0340
1142.00,0.0333
1141.00,0.0328
1140.00,0.0322
1139.00,0.0318
1138.00,0.0314
1137.00,0.0312
1136.00,0.0311
1135.00,0.0311
1134.00,0.0313
1133.00,0.0319
1132.00,0.0327
1131.00,0.0341
1130.00,0.0361
1129.00,0.0387
1128.00,0.0420
1127.00,0.0456
1126.00,0.0489
1125.00,0.0513
1124.00,0.0521
1123.00,0.0515
1122.00,0.0496
1121.00,0.0472
1120.00,0.0447
1119.00,0.0424
1118.00,0.0405
1117.00,0.0390
1116.00,0.0378
1115.00,0.0370
1114.00,0.0365
1113.00,0.0362
1112.00,0.0361
1111.00,0.0361
1110.00,0.0363
1109.00,0.0365
1108.00,0.0366
1107.00,0.0367
1106.00,0.0367
1105.00,0.0366
1104.00,0.0365
1103.00,0.0364
1102.00,0.0363
1101.00,0.0364
1100.00,0.0365
1099.00,0.0367
1098.00,0.0370
1097.00,0.0374
1096.00,0.0379
1095.00,0.0385
1094.00,0.0392
1093.00,0.0398
1092.00,0.0402
1091.00,0.0404
1090.00,0.0403
1089.00,0.0399
1088.00,0.0392
1087.00,0.0383
1086.00,0.0372
1085.00,0.0361
1084.00,0.0350
1083.00,0.0340
1082.00,0.0329
1081.00,0.0320
1080.00,0.0312
1079.00,0.0305
1078.00,0.0299
1077.00,0.0294
1076.00,0.0289
1075.00,0.0284
1074.00,0.0280
1073.00,0.0276
1072.00,0.0272
1071.00,0.0269
1070.00,0.0266
1069.00,0.0263
1068.00,0.0261
1067.00,0.0258
1066.00,0.0255
1065.00,0.0252
1064.00,0.0250
1063.00,0.0247
1062.00,0.0245
1061.00,0.0243
1060.00,0.0241
1059.00,0.0238
1058.00,0.0235
1057.00,0.0233
1056.00,0.0231
1055.00,0.0228
1054.00,0.0226
1053.00,0.0224
1052.00,0.0221
1051.00,0.0219
1050.00,0.0217
1049.00,0.0215
1048.00,0.0213
1047.00,0.0211
1046.00,0.0210
1045.00,0.0210
1044.00,0.0210
1043.00,0.0214
1042.00,0.0222
1041.00,0.0237
1040.00,0.0258
1039.00,0.0279
1038.00,0.0294
1037.00,0.0297
1036.00,0.0294
1035.00,0.0298
1034.00,0.0329
1033.00,0.0400
1032.00,0.0517
1031.00,0.0661
1030.00,0.0796
1029.00,0.0877
1028.00,0.0884
1027.00,0.0828
1026.00,0.0744
1025.00,0.0660
1024.00,0.0591
1023.00,0.0539
1022.00,0.0501
1021.00,0.0474
1020.00,0.0451
1019.00,0.0429
1018.00,0.0409
1017.00,0.0390
1016.00,0.0374
1015.00,0.0360
1014.00,0.0349
1013.00,0.0340
1012.00,0.0332
1011.00,0.0325
1010.00,0.0319
1009.00,0.0313
1008.00,0.0309
1007.00,0.0305
1006.00,0.0302
1005.00,0.0299
1004.00,0.0297
1003.00,0.0293
1002.00,0.0290
1001.00,0.0288
1000.00,0.0288
999.00,0.0290
998.00,0.0296
997.00,0.0302
996.00,0.0306
995.00,0.0306
994.00,0.0301
993.00,0.0293
992.00,0.0285
991.00,0.0279
990.00,0.0275
989.00,0.0272
988.00,0.0270
987.00,0.0268
986.00,0.0266
985.00,0.0264
984.00,0.0262
983.00,0.0261
982.00,0.0260
981.00,0.0259
980.00,0.0258
979.00,0.0257
978.00,0.0256
977.00,0.0256
976.00,0.0256
975.00,0.0258
974.00,0.0262
973.00,0.0271
972.00,0.0285
971.00,0.0302
970.00,0.0317
969.00,0.0323
968.00,0.0317
967.00,0.0302
966.00,0.0285
965.00,0.0271
964.00,0.0261
963.00,0.0255
962.00,0.0250
961.00,0.0247
960.00,0.0245
959.00,0.0243
958.00,0.0242
957.00,0.0240
956.00,0.0239
955.00,0.0237
954.00,0.0236
953.00,0.0235
952.00,0.0235
951.00,0.0234
950.00,0.0233
949.00,0.0232
948.00,0.0232
947.00,0.0232
946.00,0.0232
945.00,0.0233
944.00,0.0234
943.00,0.0236
942.00,0.0240
941.00,0.0249
940.00,0.0263
939.00,0.0283
938.00,0.0307
937.00,0.0327
936.00,0.0336
935.00,0.0331
934.00,0.0315
933.00,0.0297
932.00,0.0280
931.00,0.0267
930.00,0.0257
929.00,0.0249
928.00,0.0243
927.00,0.0239
926.00,0.0235
925.00,0.0233
924.00,0.0232
923.00,0.0230
922.00,0.0228
921.00,0.0227
920.00,0.0226
919.00,0.0225
918.00,0.0224
917.00,0.0223
916.00,0.0222
915.00,0.0222
914.00,0.0221
913.00,0.0221
912.00,0.0220
911.00,0.0220
910.00,0.0220
909.00,0.0219
908.00,0.0219
907.00,0.0219
906.00,0.0219
905.00,0.0219
904.00,0.0218
903.00,0.0218
902.00,0.0218
901.00,0.0218
900.00,0.0218
899.00,0.0217
898.00,0.0217
897.00,0.0217
896.00,0.0216
895.00,0.0216
894.00,0.0216
893.00,0.0216
892.00,0.0215
891.00,0.0215
890.00,0.0214
889.00,0.0214
888.00,0.0214
887.00,0.0214
886.00,0.0214
885.00,0.0214
884.00,0.0213
883.00,0.0213
882.00,0.0212
881.00,0.0212
880.00,0.0212
879.00,0.0212
878.00,0.0212
877.00,0.0212
876.00,0.0212
875.00,0.0212
874.00,0.0212
873.00,0.0211
872.00,0.0211
871.00,0.0210
870.00,0.0210
869.00,0.0210
868.00,0.0209
867.00,0.0209
866.00,0.0209
865.00,0.0209
864.00,0.0209
863.00,0.0209
862.00,0.0208
861.00,0.0208
860.00,0.0208
859.00,0.0208
858.00,0.0208
857.00,0.0208
856.00,0.0208
855.00,0.0207
854.00,0.0207
853.00,0.0206
852.00,0.0206
851.00,0.0205
850.00,0.0205
849.00,0.0205
848.00,0.0205
847.00,0.0206
846.00,0.0206
845.00,0.0207
844.00,0.0208
843.00,0.0209
842.00,0.0211
841.00,0.0212
840.00,0.0214
839.00,0.0217
838.00,0.0220
837.00,0.0225
836.00,0.0232
835.00,0.0244
834.00,0.0264
833.00,0.0296
832.00,0.0344
831.00,0.0406
830.00,0.0468
829.00,0.0513
828.00,0.0525
827.00,0.0503
826.00,0.0459
825.00,0.0411
824.00,0.0370
823.00,0.0340
822.00,0.0320
821.00,0.0308
820.00,0.0300
819.00,0.0295
818.00,0.0292
817.00,0.0290
816.00,0.0290
815.00,0.0291
814.00,0.0292
813.00,0.0294
812.00,0.0297
811.00,0.0300
810.00,0.0304
809.00,0.0308
808.00,0.0313
807.00,0.0318
806.00,0.0324
805.00,0.0330
804.00,0.0338
803.00,0.0346
802.00,0.0355
801.00,0.0365
800.00,0.0377
799.00,0.0389
798.00,0.0402
797.00,0.0416
796.00,0.0431
795.00,0.0446
794.00,0.0460
793.00,0.0473
792.00,0.0484
791.00,0.0494
790.00,0.0502
789.00,0.0510
788.00,0.0518
787.00,0.0526
786.00,0.0535
785.00,0.0544
784.00,0.0553
783.00,0.0563
782.00,0.0572
781.00,0.0581
780.00,0.0589
779.00,0.0596
778.00,0.0600
777.00,0.0602
776.00,0.0602
775.00,0.0599
774.00,0.0593
773.00,0.0586
772.00,0.0577
771.00,0.0567
770.00,0.0556
769.00,0.0545
768.00,0.0533
767.00,0.0521
766.00,0.0509
765.00,0.0496
764.00,0.0483
763.00,0.0470
762.00,0.0458
761.00,0.0446
760.00,0.0434
759.00,0.0423
758.00,0.0413
757.00,0.0404
756.00,0.0394
755.00,0.0385
754.00,0.0377
753.00,0.0369
752.00,0.0362
751.00,0.0356
750.00,0.0350
749.00,0.0345
748.00,0.0340
747.00,0.0336
746.00,0.0332
745.00,0.0329
744.00,0.0326
743.00,0.0325
742.00,0.0324
741.00,0.0323
740.00,0.0324
739.00,0.0325
738.00,0.0326
737.00,0.0328
736.00,0.0331
735.00,0.0335
734.00,0.0339
733.00,0.0343
732.00,0.0346
731.00,0.0351
730.00,0.0355
729.00,0.0360
728.00,0.0365
727.00,0.0370
726.00,0.0374
725.00,0.0378
724.00,0.0381
723.00,0.0384
722.00,0.0386
721.00,0.0387
720.00,0.0387
719.00,0.0386
718.00,0.0386
717.00,0.0385
716.00,0.0385
715.00,0.0387
714.00,0.0390
713.00,0.0397
712.00,0.0408
711.00,0.0425
710.00,0.0454
709.00,0.0495
708.00,0.0554
707.00,0.0631
706.00,0.0724
705.00,0.0825
704.00,0.0923
703.00,0.1002
702.00,0.1049
701.00,0.1057
700.00,0.1029
699.00,0.0972
698.00,0.0901
697.00,0.0825
696.00,0.0750
695.00,0.0682
694.00,0.0621
693.00,0.0570
692.00,0.0527
691.00,0.0491
690.00,0.0463
689.00,0.0439
688.00,0.0419
687.00,0.0404
686.00,0.0391
685.00,0.0380
684.00,0.0372
683.00,0.0365
682.00,0.0360
681.00,0.0355
680.00,0.0351
679.00,0.0348
678.00,0.0346
677.00,0.0344
676.00,0.0343
675.00,0.0342
674.00,0.0342
673.00,0.0341
672.00,0.0341
671.00,0.0341
670.00,0.0340
669.00,0.0338
668.00,0.0336
667.00,0.0337
666.00,0.0340
665.00,0.0345
664.00,0.0350
663.00,0.0353
662.00,0.0356
661.00,0.0359
660.00,0.0362
659.00,0.0367
658.00,0.0372
657.00,0.0378
656.00,0.0385
655.00,0.0394
654.00,0.0403
653.00,0.0413
652.00,0.0425
651.00,0.0438
650.00,0.0453
649.00,0.0475
648.00,0.0514
647.00,0.0571
646.00,0.0633
645.00,0.0674
644.00,0.0674
643.00,0.0638
642.00,0.0589
641.00,0.0550
640.00,0.0527
639.00,0.0519
638.00,0.0521
637.00,0.0529
636.00,0.0543
635.00,0.0561
634.00,0.0583
633.00,0.0611
632.00,0.0645
631.00,0.0687
630.00,0.0738
629.00,0.0802
628.00,0.0882
627.00,0.0970
626.00,0.1052
625.00,0.1114
624.00,0.1152
623.00,0.1177
622.00,0.1201
621.00,0.1225
620.00,0.1236
619.00,0.1221
618.00,0.1185
617.00,0.1146
616.00,0.1121
615.00,0.1113
614.00,0.1121
613.00,0.1140
612.00,0.1166
611.00,0.1196
610.00,0.1227
609.00,0.1259
608.00,0.1291
607.00,0.1322
606.00,0.1349
605.00,0.1374
604.00,0.1397
603.00,0.1416
602.00,0.1431
601.00,0.1443
600.00,0.1453
599.00,0.1460
598.00,0.1463
597.00,0.1463
596.00,0.1462
595.00,0.1458
594.00,0.1451
593.00,0.1443
592.00,0.1435
591.00,0.1425
590.00,0.1413
589.00,0.1401
588.00,0.1389
587.00,0.1377
586.00,0.1363
585.00,0.1349
584.00,0.1335
583.00,0.1321
582.00,0.1305
581.00,0.1289
580.00,0.1274
579.00,0.1259
578.00,0.1242
577.00,0.1225
576.00,0.1209
575.00,0.1191
574.00,0.1173
573.00,0.1156
572.00,0.1139
571.00,0.1121
570.00,0.1103
569.00,0.1085
568.00,0.1068
567.00,0.1051
566.00,0.1033
565.00,0.1016
564.00,0.0998
563.00,0.0978
562.00,0.0958
561.00,0.0938
560.00,0.0920
559.00,0.0904
558.00,0.0889
557.00,0.0875
556.00,0.0861
555.00,0.0846
554.00,0.0830
553.00,0.0815
552.00,0.0801
551.00,0.0788
550.00,0.0774
549.00,0.0761
548.00,0.0749
547.00,0.0737
546.00,0.0725
545.00,0.0713
544.00,0.0701
543.00,0.0689
542.00,0.0676
541.00,0.0665
540.00,0.0655
539.00,0.0644
538.00,0.0633
537.00,0.0623
536.00,0.0614
535.00,0.0606
534.00,0.0598
533.00,0.0592
532.00,0.0587
531.00,0.0582
530.00,0.0578
529.00,0.0575
528.00,0.0575
527.00,0.0575
526.00,0.0577
525.00,0.0580
524.00,0.0585
523.00,0.0591
522.00,0.0601
521.00,0.0616
520.00,0.0636
519.00,0.0660
518.00,0.0690
517.00,0.0725
516.00,0.0763
515.00,0.0803
514.00,0.0840
513.00,0.0874
512.00,0.0902
511.00,0.0920
510.00,0.0927
509.00,0.0922
508.00,0.0907
507.00,0.0885
506.00,0.0859
505.00,0.0831
504.00,0.0801
503.00,0.0769
502.00,0.0735
501.00,0.0704
500.00,0.0678
499.00,0.0655
498.00,0.0635
497.00,0.0616
496.00,0.0600
495.00,0.0585
494.00,0.0571
493.00,0.0559
492.00,0.0547
491.00,0.0537
490.00,0.0526
489.00,0.0517
488.00,0.0509
487.00,0.0499
486.00,0.0490
485.00,0.0481
484.00,0.0473
483.00,0.0466
482.00,0.0459
481.00,0.0453
480.00,0.0448
479.00,0.0442
478.00,0.0435
477.00,0.0428
476.00,0.0422
475.00,0.0416
474.00,0.0411
473.00,0.0408
472.00,0.0406
471.00,0.0403
470.00,0.0399
469.00,0.0394
468.00,0.0390
467.00,0.0384
466.00,0.0378
465.00,0.0372
464.00,0.0367
463.00,0.0363
462.00,0.0359
461.00,0.0357
460.00,0.0355
459.00,0.0352
458.00,0.0350
457.00,0.0349
456.00,0.0347
455.00,0.0342
454.00,0.0337
453.00,0.0333
452.00,0.0331
451.00,0.0329
450.00,0.0328
449.00,0.0327
448.00,0.0324
447.00,0.0320
446.00,0.0315
445.00,0.0310
444.00,0.0306
443.00,0.0302
442.00,0.0298
441.00,0.0295
440.00,0.0294
439.00,0.0292
438.00,0.0288
437.00,0.0284
436.00,0.0280
435.00,0.0275
434.00,0.0272
433.00,0.0271
432.00,0.0271
431.00,0.0270
430.00,0.0268
429.00,0.0266
428.00,0.0265
427.00,0.0264
426.00,0.0263
425.00,0.0265
424.00,0.0267
423.00,0.0271
422.00,0.0276
421.00,0.0283
420.00,0.0296
419.00,0.0317
418.00,0.0348
417.00,0.0393
416.00,0.0457
415.00,0.0544
414.00,0.0645
413.00,0.0738
412.00,0.0791
411.00,0.0784
410.00,0.0723
409.00,0.0637
408.00,0.0554
407.00,0.0486
406.00,0.0436
405.00,0.0405
404.00,0.0389
403.00,0.0383
402.00,0.0382
401.00,0.0391
400.00,0.0412
