Created as New Dataset,Sample 736 By YargerLab Date Friday, March 20 2026
cm-1,A
4000.00,0.0200
3999.00,0.0200
3998.00,0.0200
3997.00,0.0200
3996.00,0.0201
3995.00,0.0201
3994.00,0.0201
3993.00,0.0201
3992.00,0.0201
3991.00,0.0200
3990.00,0.0200
3989.00,0.0200
3988.00,0.0199
3987.00,0.0199
3986.00,0.0199
3985.00,0.0199
3984.00,0.0199
3983.00,0.0199
3982.00,0.0199
3981.00,0.0199
3980.00,0.0199
3979.00,0.0199
3978.00,0.0200
3977.00,0.0200
3976.00,0.0200
3975.00,0.0200
3974.00,0.0200
3973.00,0.0199
3972.00,0.0199
3971.00,0.0199
3970.00,0.0199
3969.00,0.0198
3968.00,0.0198
3967.00,0.0198
3966.00,0.0198
3965.00,0.0198
3964.00,0.0198
3963.00,0.0199
3962.00,0.0199
3961.00,0.0199
3960.00,0.0199
3959.00,0.0199
3958.00,0.0199
3957.00,0.0199
3956.00,0.0199
3955.00,0.0198
3954.00,0.0198
3953.00,0.0198
3952.00,0.0198
3951.00,0.0198
3950.00,0.0197
3949.00,0.0197
3948.00,0.0197
3947.00,0.0196
3946.00,0.0196
3945.00,0.0197
3944.00,0.0197
3943.00,0.0197
3942.00,0.0197
3941.00,0.0196
3940.00,0.0196
3939.00,0.0196
3938.00,0.0197
3937.00,0.0197
3936.00,0.0197
3935.00,0.0197
3934.00,0.0197
3933.00,0.0196
3932.00,0.0196
3931.00,0.0196
3930.00,0.0196
3929.00,0.0196
3928.00,0.0196
3927.00,0.0196
3926.00,0.0196
3925.00,0.0196
3924.00,0.0196
3923.00,0.0196
3922.00,0.0196
3921.00,0.0196
3920.00,0.0195
3919.00,0.0195
3918.00,0.0195
3917.00,0.0195
3916.00,0.0195
3915.00,0.0195
3914.00,0.0195
3913.00,0.0195
3912.00,0.0195
3911.00,0.0195
3910.00,0.0195
3909.00,0.0195
3908.00,0.0195
3907.00,0.0195
3906.00,0.0195
3905.00,0.0195
3904.00,0.0195
3903.00,0.0195
3902.00,0.0195
3901.00,0.0195
3900.00,0.0196
3899.00,0.0196
3898.00,0.0195
3897.00,0.0194
3896.00,0.0194
3895.00,0.0194
3894.00,0.0194
3893.00,0.0194
3892.00,0.0194
3891.00,0.0194
3890.00,0.0193
3889.00,0.0193
3888.00,0.0193
3887.00,0.0193
3886.00,0.0193
3885.00,0.0192
3884.00,0.0192
3883.00,0.0192
3882.00,0.0193
3881.00,0.0193
3880.00,0.0193
3879.00,0.0192
3878.00,0.0192
3877.00,0.0192
3876.00,0.0192
3875.00,0.0192
3874.00,0.0191
3873.00,0.0190
3872.00,0.0190
3871.00,0.0191
3870.00,0.0191
3869.00,0.0191
3868.00,0.0191
3867.00,0.0192
3866.00,0.0192
3865.00,0.0192
3864.00,0.0192
3863.00,0.0191
3862.00,0.0191
3861.00,0.0191
3860.00,0.0191
3859.00,0.0190
3858.00,0.0189
3857.00,0.0188
3856.00,0.0187
3855.00,0.0188
3854.00,0.0188
3853.00,0.0189
3852.00,0.0189
3851.00,0.0190
3850.00,0.0191
3849.00,0.0191
3848.00,0.0192
3847.00,0.0191
3846.00,0.0191
3845.00,0.0191
3844.00,0.0190
3843.00,0.0189
3842.00,0.0189
3841.00,0.0188
3840.00,0.0188
3839.00,0.0188
3838.00,0.0188
3837.00,0.0189
3836.00,0.0189
3835.00,0.0189
3834.00,0.0190
3833.00,0.0190
3832.00,0.0190
3831.00,0.0190
3830.00,0.0190
3829.00,0.0190
3828.00,0.0190
3827.00,0.0189
3826.00,0.0189
3825.00,0.0188
3824.00,0.0187
3823.00,0.0187
3822.00,0.0187
3821.00,0.0187
3820.00,0.0186
3819.00,0.0186
3818.00,0.0186
3817.00,0.0187
3816.00,0.0188
3815.00,0.0187
3814.00,0.0187
3813.00,0.0187
3812.00,0.0187
3811.00,0.0187
3810.00,0.0186
3809.00,0.0186
3808.00,0.0187
3807.00,0.0187
3806.00,0.0187
3805.00,0.0186
3804.00,0.0187
3803.00,0.0187
3802.00,0.0187
3801.00,0.0187
3800.00,0.0186
3799.00,0.0186
3798.00,0.0187
3797.00,0.0187
3796.00,0.0186
3795.00,0.0186
3794.00,0.0185
3793.00,0.0185
3792.00,0.0185
3791.00,0.0185
3790.00,0.0185
3789.00,0.0185
3788.00,0.0185
3787.00,0.0186
3786.00,0.0186
3785.00,0.0186
3784.00,0.0186
3783.00,0.0185
3782.00,0.0185
3781.00,0.0185
3780.00,0.0185
3779.00,0.0185
3778.00,0.0184
3777.00,0.0185
3776.00,0.0185
3775.00,0.0185
3774.00,0.0184
3773.00,0.0184
3772.00,0.0184
3771.00,0.0184
3770.00,0.0183
3769.00,0.0183
3768.00,0.0183
3767.00,0.0183
3766.00,0.0184
3765.00,0.0184
3764.00,0.0183
3763.00,0.0183
3762.00,0.0183
3761.00,0.0183
3760.00,0.0183
3759.00,0.0183
3758.00,0.0182
3757.00,0.0182
3756.00,0.0181
3755.00,0.0181
3754.00,0.0180
3753.00,0.0180
3752.00,0.0180
3751.00,0.0181
3750.00,0.0181
3749.00,0.0181
3748.00,0.0181
3747.00,0.0181
3746.00,0.0182
3745.00,0.0182
3744.00,0.0182
3743.00,0.0181
3742.00,0.0180
3741.00,0.0180
3740.00,0.0181
3739.00,0.0180
3738.00,0.0180
3737.00,0.0180
3736.00,0.0180
3735.00,0.0179
3734.00,0.0179
3733.00,0.0179
3732.00,0.0178
3731.00,0.0178
3730.00,0.0178
3729.00,0.0178
3728.00,0.0178
3727.00,0.0178
3726.00,0.0178
3725.00,0.0178
3724.00,0.0178
3723.00,0.0179
3722.00,0.0179
3721.00,0.0179
3720.00,0.0179
3719.00,0.0179
3718.00,0.0178
3717.00,0.0178
3716.00,0.0177
3715.00,0.0177
3714.00,0.0177
3713.00,0.0177
3712.00,0.0177
3711.00,0.0177
3710.00,0.0177
3709.00,0.0177
3708.00,0.0177
3707.00,0.0177
3706.00,0.0176
3705.00,0.0176
3704.00,0.0176
3703.00,0.0176
3702.00,0.0176
3701.00,0.0176
3700.00,0.0176
3699.00,0.0176
3698.00,0.0176
3697.00,0.0176
3696.00,0.0176
3695.00,0.0175
3694.00,0.0175
3693.00,0.0174
3692.00,0.0174
3691.00,0.0173
3690.00,0.0174
3689.00,0.0174
3688.00,0.0175
3687.00,0.0175
3686.00,0.0175
3685.00,0.0176
3684.00,0.0176
3683.00,0.0176
3682.00,0.0176
3681.00,0.0175
3680.00,0.0175
3679.00,0.0174
3678.00,0.0173
3677.00,0.0173
3676.00,0.0174
3675.00,0.0174
3674.00,0.0173
3673.00,0.0173
3672.00,0.0174
3671.00,0.0175
3670.00,0.0175
3669.00,0.0174
3668.00,0.0174
3667.00,0.0174
3666.00,0.0175
3665.00,0.0175
3664.00,0.0174
3663.00,0.0174
3662.00,0.0174
3661.00,0.0173
3660.00,0.0173
3659.00,0.0173
3658.00,0.0173
3657.00,0.0173
3656.00,0.0173
3655.00,0.0173
3654.00,0.0172
3653.00,0.0172
3652.00,0.0172
3651.00,0.0172
3650.00,0.0172
3649.00,0.0173
3648.00,0.0173
3647.00,0.0173
3646.00,0.0173
3645.00,0.0173
3644.00,0.0173
3643.00,0.0173
3642.00,0.0173
3641.00,0.0173
3640.00,0.0172
3639.00,0.0172
3638.00,0.0172
3637.00,0.0171
3636.00,0.0171
3635.00,0.0171
3634.00,0.0171
3633.00,0.0170
3632.00,0.0170
3631.00,0.0170
3630.00,0.0170
3629.00,0.0170
3628.00,0.0169
3627.00,0.0169
3626.00,0.0170
3625.00,0.0170
3624.00,0.0170
3623.00,0.0170
3622.00,0.0170
3621.00,0.0170
3620.00,0.0170
3619.00,0.0170
3618.00,0.0170
3617.00,0.0170
3616.00,0.0171
3615.00,0.0171
3614.00,0.0171
3613.00,0.0171
3612.00,0.0171
3611.00,0.0170
3610.00,0.0170
3609.00,0.0170
3608.00,0.0170
3607.00,0.0170
3606.00,0.0170
3605.00,0.0170
3604.00,0.0170
3603.00,0.0170
3602.00,0.0170
3601.00,0.0170
3600.00,0.0170
3599.00,0.0170
3598.00,0.0170
3597.00,0.0170
3596.00,0.0170
3595.00,0.0170
3594.00,0.0170
3593.00,0.0170
3592.00,0.0170
3591.00,0.0170
3590.00,0.0169
3589.00,0.0169
3588.00,0.0169
3587.00,0.0169
3586.00,0.0169
3585.00,0.0169
3584.00,0.0169
3583.00,0.0170
3582.00,0.0170
3581.00,0.0170
3580.00,0.0170
3579.00,0.0170
3578.00,0.0170
3577.00,0.0170
3576.00,0.0170
3575.00,0.0170
3574.00,0.0169
3573.00,0.0169
3572.00,0.0169
3571.00,0.0169
3570.00,0.0169
3569.00,0.0169
3568.00,0.0170
3567.00,0.0170
3566.00,0.0170
3565.00,0.0170
3564.00,0.0170
3563.00,0.0170
3562.00,0.0170
3561.00,0.0170
3560.00,0.0170
3559.00,0.0169
3558.00,0.0169
3557.00,0.0169
3556.00,0.0169
3555.00,0.0169
3554.00,0.0169
3553.00,0.0169
3552.00,0.0169
3551.00,0.0169
3550.00,0.0169
3549.00,0.0169
3548.00,0.0169
3547.00,0.0169
3546.00,0.0169
3545.00,0.0169
3544.00,0.0169
3543.00,0.0168
3542.00,0.0168
3541.00,0.0168
3540.00,0.0168
3539.00,0.0169
3538.00,0.0169
3537.00,0.0169
3536.00,0.0169
3535.00,0.0169
3534.00,0.0169
3533.00,0.0168
3532.00,0.0168
3531.00,0.0168
3530.00,0.0168
3529.00,0.0168
3528.00,0.0168
3527.00,0.0168
3526.00,0.0168
3525.00,0.0168
3524.00,0.0168
3523.00,0.0168
3522.00,0.0168
3521.00,0.0168
3520.00,0.0168
3519.00,0.0168
3518.00,0.0168
3517.00,0.0168
3516.00,0.0167
3515.00,0.0167
3514.00,0.0167
3513.00,0.0167
3512.00,0.0167
3511.00,0.0167
3510.00,0.0167
3509.00,0.0167
3508.00,0.0167
3507.00,0.0167
3506.00,0.0167
3505.00,0.0167
3504.00,0.0167
3503.00,0.0167
3502.00,0.0167
3501.00,0.0167
3500.00,0.0167
3499.00,0.0166
3498.00,0.0166
3497.00,0.0166
3496.00,0.0166
3495.00,0.0166
3494.00,0.0166
3493.00,0.0166
3492.00,0.0166
3491.00,0.0166
3490.00,0.0166
3489.00,0.0166
3488.00,0.0166
3487.00,0.0166
3486.00,0.0166
3485.00,0.0166
3484.00,0.0166
3483.00,0.0166
3482.00,0.0166
3481.00,0.0166
3480.00,0.0166
3479.00,0.0166
3478.00,0.0166
3477.00,0.0166
3476.00,0.0166
3475.00,0.0166
3474.00,0.0166
3473.00,0.0166
3472.00,0.0165
3471.00,0.0165
3470.00,0.0165
3469.00,0.0165
3468.00,0.0165
3467.00,0.0165
3466.00,0.0165
3465.00,0.0166
3464.00,0.0166
3463.00,0.0166
3462.00,0.0166
3461.00,0.0166
3460.00,0.0166
3459.00,0.0166
3458.00,0.0166
3457.00,0.0166
3456.00,0.0166
3455.00,0.0166
3454.00,0.0166
3453.00,0.0166
3452.00,0.0166
3451.00,0.0166
3450.00,0.0166
3449.00,0.0166
3448.00,0.0166
3447.00,0.0166
3446.00,0.0166
3445.00,0.0166
3444.00,0.0166
3443.00,0.0166
3442.00,0.0166
3441.00,0.0166
3440.00,0.0166
3439.00,0.0166
3438.00,0.0166
3437.00,0.0165
3436.00,0.0165
3435.00,0.0166
3434.00,0.0166
3433.00,0.0166
3432.00,0.0167
3431.00,0.0167
3430.00,0.0167
3429.00,0.0167
3428.00,0.0167
3427.00,0.0168
3426.00,0.0168
3425.00,0.0169
3424.00,0.0169
3423.00,0.0169
3422.00,0.0170
3421.00,0.0170
3420.00,0.0171
3419.00,0.0171
3418.00,0.0171
3417.00,0.0171
3416.00,0.0171
3415.00,0.0171
3414.00,0.0171
3413.00,0.0171
3412.00,0.0171
3411.00,0.0171
3410.00,0.0172
3409.00,0.0172
3408.00,0.0173
3407.00,0.0173
3406.00,0.0174
3405.00,0.0173
3404.00,0.0172
3403.00,0.0171
3402.00,0.0171
3401.00,0.0171
3400.00,0.0171
3399.00,0.0173
3398.00,0.0174
3397.00,0.0175
3396.00,0.0175
3395.00,0.0175
3394.00,0.0174
3393.00,0.0173
3392.00,0.0174
3391.00,0.0175
3390.00,0.0176
3389.00,0.0178
3388.00,0.0179
3387.00,0.0179
3386.00,0.0179
3385.00,0.0179
3384.00,0.0179
3383.00,0.0179
3382.00,0.0179
3381.00,0.0179
3380.00,0.0178
3379.00,0.0178
3378.00,0.0178
3377.00,0.0178
3376.00,0.0178
3375.00,0.0178
3374.00,0.0178
3373.00,0.0178
3372.00,0.0177
3371.00,0.0177
3370.00,0.0176
3369.00,0.0176
3368.00,0.0177
3367.00,0.0178
3366.00,0.0179
3365.00,0.0180
3364.00,0.0181
3363.00,0.0182
3362.00,0.0182
3361.00,0.0183
3360.00,0.0184
3359.00,0.0185
3358.00,0.0186
3357.00,0.0187
3356.00,0.0188
3355.00,0.0189
3354.00,0.0190
3353.00,0.0190
3352.00,0.0191
3351.00,0.0193
3350.00,0.0195
3349.00,0.0197
3348.00,0.0200
3347.00,0.0202
3346.00,0.0204
3345.00,0.0206
3344.00,0.0209
3343.00,0.0211
3342.00,0.0215
3341.00,0.0218
3340.00,0.0222
3339.00,0.0226
3338.00,0.0231
3337.00,0.0236
3336.00,0.0243
3335.00,0.0249
3334.00,0.0256
3333.00,0.0264
3332.00,0.0271
3331.00,0.0278
3330.00,0.0285
3329.00,0.0292
3328.00,0.0298
3327.00,0.0303
3326.00,0.0308
3325.00,0.0312
3324.00,0.0315
3323.00,0.0317
3322.00,0.0318
3321.00,0.0317
3320.00,0.0316
3319.00,0.0313
3318.00,0.0310
3317.00,0.0306
3316.00,0.0303
3315.00,0.0298
3314.00,0.0294
3313.00,0.0289
3312.00,0.0284
3311.00,0.0280
3310.00,0.0275
3309.00,0.0270
3308.00,0.0266
3307.00,0.0264
3306.00,0.0262
3305.00,0.0261
3304.00,0.0261
3303.00,0.0262
3302.00,0.0262
3301.00,0.0262
3300.00,0.0261
3299.00,0.0260
3298.00,0.0259
3297.00,0.0258
3296.00,0.0257
3295.00,0.0257
3294.00,0.0257
3293.00,0.0256
3292.00,0.0257
3291.00,0.0257
3290.00,0.0258
3289.00,0.0258
3288.00,0.0257
3287.00,0.0257
3286.00,0.0255
3285.00,0.0254
3284.00,0.0253
3283.00,0.0252
3282.00,0.0250
3281.00,0.0249
3280.00,0.0248
3279.00,0.0247
3278.00,0.0246
3277.00,0.0245
3276.00,0.0244
3275.00,0.0243
3274.00,0.0242
3273.00,0.0241
3272.00,0.0241
3271.00,0.0242
3270.00,0.0243
3269.00,0.0245
3268.00,0.0246
3267.00,0.0248
3266.00,0.0249
3265.00,0.0249
3264.00,0.0250
3263.00,0.0250
3262.00,0.0250
3261.00,0.0251
3260.00,0.0251
3259.00,0.0251
3258.00,0.0250
3257.00,0.0250
3256.00,0.0250
3255.00,0.0250
3254.00,0.0250
3253.00,0.0250
3252.00,0.0250
3251.00,0.0250
3250.00,0.0249
3249.00,0.0248
3248.00,0.0248
3247.00,0.0248
3246.00,0.0248
3245.00,0.0249
3244.00,0.0249
3243.00,0.0249
3242.00,0.0249
3241.00,0.0249
3240.00,0.0250
3239.00,0.0250
3238.00,0.0250
3237.00,0.0250
3236.00,0.0250
3235.00,0.0250
3234.00,0.0250
3233.00,0.0251
3232.00,0.0252
3231.00,0.0253
3230.00,0.0254
3229.00,0.0255
3228.00,0.0256
3227.00,0.0257
3226.00,0.0258
3225.00,0.0260
3224.00,0.0261
3223.00,0.0262
3222.00,0.0263
3221.00,0.0264
3220.00,0.0265
3219.00,0.0266
3218.00,0.0268
3217.00,0.0270
3216.00,0.0271
3215.00,0.0273
3214.00,0.0274
3213.00,0.0276
3212.00,0.0278
3211.00,0.0279
3210.00,0.0281
3209.00,0.0282
3208.00,0.0283
3207.00,0.0285
3206.00,0.0286
3205.00,0.0287
3204.00,0.0288
3203.00,0.0288
3202.00,0.0289
3201.00,0.0290
3200.00,0.0291
3199.00,0.0291
3198.00,0.0292
3197.00,0.0292
3196.00,0.0293
3195.00,0.0293
3194.00,0.0293
3193.00,0.0294
3192.00,0.0294
3191.00,0.0295
3190.00,0.0296
3189.00,0.0296
3188.00,0.0297
3187.00,0.0298
3186.00,0.0298
3185.00,0.0299
3184.00,0.0300
3183.00,0.0300
3182.00,0.0301
3181.00,0.0302
3180.00,0.0303
3179.00,0.0304
3178.00,0.0305
3177.00,0.0306
3176.00,0.0307
3175.00,0.0309
3174.00,0.0310
3173.00,0.0312
3172.00,0.0313
3171.00,0.0315
3170.00,0.0317
3169.00,0.0318
3168.00,0.0320
3167.00,0.0322
3166.00,0.0323
3165.00,0.0325
3164.00,0.0326
3163.00,0.0327
3162.00,0.0327
3161.00,0.0327
3160.00,0.0327
3159.00,0.0327
3158.00,0.0327
3157.00,0.0326
3156.00,0.0325
3155.00,0.0324
3154.00,0.0324
3153.00,0.0323
3152.00,0.0323
3151.00,0.0323
3150.00,0.0323
3149.00,0.0323
3148.00,0.0323
3147.00,0.0323
3146.00,0.0323
3145.00,0.0323
3144.00,0.0323
3143.00,0.0322
3142.00,0.0322
3141.00,0.0321
3140.00,0.0321
3139.00,0.0322
3138.00,0.0323
3137.00,0.0324
3136.00,0.0325
3135.00,0.0326
3134.00,0.0328
3133.00,0.0330
3132.00,0.0332
3131.00,0.0335
3130.00,0.0339
3129.00,0.0343
3128.00,0.0348
3127.00,0.0353
3126.00,0.0359
3125.00,0.0366
3124.00,0.0372
3123.00,0.0379
3122.00,0.0385
3121.00,0.0392
3120.00,0.0399
3119.00,0.0406
3118.00,0.0412
3117.00,0.0417
3116.00,0.0423
3115.00,0.0427
3114.00,0.0431
3113.00,0.0433
3112.00,0.0434
3111.00,0.0434
3110.00,0.0432
3109.00,0.0430
3108.00,0.0427
3107.00,0.0423
3106.00,0.0419
3105.00,0.0413
3104.00,0.0407
3103.00,0.0401
3102.00,0.0394
3101.00,0.0389
3100.00,0.0384
3099.00,0.0380
3098.00,0.0377
3097.00,0.0374
3096.00,0.0371
3095.00,0.0367
3094.00,0.0363
3093.00,0.0360
3092.00,0.0356
3091.00,0.0352
3090.00,0.0348
3089.00,0.0345
3088.00,0.0341
3087.00,0.0338
3086.00,0.0334
3085.00,0.0330
3084.00,0.0327
3083.00,0.0323
3082.00,0.0320
3081.00,0.0317
3080.00,0.0314
3079.00,0.0311
3078.00,0.0309
3077.00,0.0308
3076.00,0.0307
3075.00,0.0305
3074.00,0.0304
3073.00,0.0303
3072.00,0.0301
3071.00,0.0300
3070.00,0.0299
3069.00,0.0297
3068.00,0.0296
3067.00,0.0296
3066.00,0.0295
3065.00,0.0295
3064.00,0.0294
3063.00,0.0294
3062.00,0.0293
3061.00,0.0292
3060.00,0.0290
3059.00,0.0289
3058.00,0.0288
3057.00,0.0287
3056.00,0.0286
3055.00,0.0285
3054.00,0.0284
3053.00,0.0283
3052.00,0.0282
3051.00,0.0282
3050.00,0.0281
3049.00,0.0281
3048.00,0.0280
3047.00,0.0279
3046.00,0.0278
3045.00,0.0278
3044.00,0.0278
3043.00,0.0279
3042.00,0.0279
3041.00,0.0281
3040.00,0.0282
3039.00,0.0284
3038.00,0.0285
3037.00,0.0285
3036.00,0.0285
3035.00,0.0284
3034.00,0.0284
3033.00,0.0284
3032.00,0.0283
3031.00,0.0282
3030.00,0.0281
3029.00,0.0280
3028.00,0.0279
3027.00,0.0278
3026.00,0.0277
3025.00,0.0276
3024.00,0.0275
3023.00,0.0274
3022.00,0.0273
3021.00,0.0272
3020.00,0.0271
3019.00,0.0270
3018.00,0.0270
3017.00,0.0269
3016.00,0.0268
3015.00,0.0268
3014.00,0.0268
3013.00,0.0268
3012.00,0.0268
3011.00,0.0269
3010.00,0.0269
3009.00,0.0270
3008.00,0.0271
3007.00,0.0271
3006.00,0.0271
3005.00,0.0270
3004.00,0.0270
3003.00,0.0269
3002.00,0.0269
3001.00,0.0268
3000.00,0.0268
2999.00,0.0267
2998.00,0.0266
2997.00,0.0265
2996.00,0.0265
2995.00,0.0264
2994.00,0.0263
2993.00,0.0262
2992.00,0.0262
2991.00,0.0263
2990.00,0.0263
2989.00,0.0263
2988.00,0.0263
2987.00,0.0263
2986.00,0.0263
2985.00,0.0263
2984.00,0.0262
2983.00,0.0262
2982.00,0.0262
2981.00,0.0262
2980.00,0.0263
2979.00,0.0265
2978.00,0.0266
2977.00,0.0267
2976.00,0.0269
2975.00,0.0271
2974.00,0.0274
2973.00,0.0277
2972.00,0.0280
2971.00,0.0283
2970.00,0.0287
2969.00,0.0291
2968.00,0.0295
2967.00,0.0299
2966.00,0.0303
2965.00,0.0307
2964.00,0.0311
2963.00,0.0314
2962.00,0.0317
2961.00,0.0321
2960.00,0.0323
2959.00,0.0325
2958.00,0.0326
2957.00,0.0327
2956.00,0.0327
2955.00,0.0326
2954.00,0.0324
2953.00,0.0323
2952.00,0.0321
2951.00,0.0319
2950.00,0.0316
2949.00,0.0312
2948.00,0.0308
2947.00,0.0304
2946.00,0.0299
2945.00,0.0296
2944.00,0.0293
2943.00,0.0290
2942.00,0.0287
2941.00,0.0284
2940.00,0.0282
2939.00,0.0279
2938.00,0.0276
2937.00,0.0274
2936.00,0.0272
2935.00,0.0270
2934.00,0.0268
2933.00,0.0266
2932.00,0.0263
2931.00,0.0261
2930.00,0.0260
2929.00,0.0258
2928.00,0.0257
2927.00,0.0256
2926.00,0.0254
2925.00,0.0252
2924.00,0.0251
2923.00,0.0249
2922.00,0.0247
2921.00,0.0245
2920.00,0.0243
2919.00,0.0241
2918.00,0.0239
2917.00,0.0238
2916.00,0.0236
2915.00,0.0235
2914.00,0.0234
2913.00,0.0234
2912.00,0.0234
2911.00,0.0233
2910.00,0.0233
2909.00,0.0233
2908.00,0.0232
2907.00,0.0232
2906.00,0.0231
2905.00,0.0231
2904.00,0.0230
2903.00,0.0230
2902.00,0.0230
2901.00,0.0230
2900.00,0.0230
2899.00,0.0230
2898.00,0.0230
2897.00,0.0231
2896.00,0.0231
2895.00,0.0232
2894.00,0.0233
2893.00,0.0234
2892.00,0.0235
2891.00,0.0236
2890.00,0.0237
2889.00,0.0238
2888.00,0.0238
2887.00,0.0239
2886.00,0.0239
2885.00,0.0239
2884.00,0.0239
2883.00,0.0239
2882.00,0.0238
2881.00,0.0238
2880.00,0.0237
2879.00,0.0237
2878.00,0.0235
2877.00,0.0234
2876.00,0.0232
2875.00,0.0229
2874.00,0.0227
2873.00,0.0226
2872.00,0.0225
2871.00,0.0224
2870.00,0.0223
2869.00,0.0221
2868.00,0.0220
2867.00,0.0218
2866.00,0.0217
2865.00,0.0215
2864.00,0.0214
2863.00,0.0212
2862.00,0.0210
2861.00,0.0209
2860.00,0.0208
2859.00,0.0206
2858.00,0.0206
2857.00,0.0205
2856.00,0.0204
2855.00,0.0203
2854.00,0.0202
2853.00,0.0201
2852.00,0.0200
2851.00,0.0199
2850.00,0.0198
2849.00,0.0198
2848.00,0.0198
2847.00,0.0198
2846.00,0.0199
2845.00,0.0199
2844.00,0.0199
2843.00,0.0199
2842.00,0.0198
2841.00,0.0198
2840.00,0.0198
2839.00,0.0197
2838.00,0.0197
2837.00,0.0197
2836.00,0.0197
2835.00,0.0197
2834.00,0.0197
2833.00,0.0197
2832.00,0.0197
2831.00,0.0196
2830.00,0.0196
2829.00,0.0195
2828.00,0.0195
2827.00,0.0195
2826.00,0.0194
2825.00,0.0194
2824.00,0.0193
2823.00,0.0193
2822.00,0.0192
2821.00,0.0192
2820.00,0.0192
2819.00,0.0192
2818.00,0.0192
2817.00,0.0192
2816.00,0.0193
2815.00,0.0193
2814.00,0.0193
2813.00,0.0193
2812.00,0.0194
2811.00,0.0194
2810.00,0.0195
2809.00,0.0195
2808.00,0.0196
2807.00,0.0197
2806.00,0.0197
2805.00,0.0198
2804.00,0.0198
2803.00,0.0199
2802.00,0.0200
2801.00,0.0200
2800.00,0.0201
2799.00,0.0201
2798.00,0.0202
2797.00,0.0202
2796.00,0.0203
2795.00,0.0203
2794.00,0.0203
2793.00,0.0202
2792.00,0.0202
2791.00,0.0201
2790.00,0.0201
2789.00,0.0200
2788.00,0.0200
2787.00,0.0199
2786.00,0.0199
2785.00,0.0198
2784.00,0.0197
2783.00,0.0197
2782.00,0.0196
2781.00,0.0195
2780.00,0.0194
2779.00,0.0193
2778.00,0.0192
2777.00,0.0191
2776.00,0.0190
2775.00,0.0190
2774.00,0.0189
2773.00,0.0188
2772.00,0.0188
2771.00,0.0187
2770.00,0.0187
2769.00,0.0186
2768.00,0.0185
2767.00,0.0185
2766.00,0.0184
2765.00,0.0184
2764.00,0.0183
2763.00,0.0183
2762.00,0.0182
2761.00,0.0182
2760.00,0.0181
2759.00,0.0181
2758.00,0.0181
2757.00,0.0180
2756.00,0.0180
2755.00,0.0180
2754.00,0.0180
2753.00,0.0179
2752.00,0.0179
2751.00,0.0179
2750.00,0.0179
2749.00,0.0179
2748.00,0.0178
2747.00,0.0178
2746.00,0.0178
2745.00,0.0178
2744.00,0.0178
2743.00,0.0179
2742.00,0.0179
2741.00,0.0179
2740.00,0.0179
2739.00,0.0179
2738.00,0.0179
2737.00,0.0179
2736.00,0.0179
2735.00,0.0180
2734.00,0.0180
2733.00,0.0181
2732.00,0.0181
2731.00,0.0181
2730.00,0.0182
2729.00,0.0182
2728.00,0.0182
2727.00,0.0182
2726.00,0.0183
2725.00,0.0183
2724.00,0.0184
2723.00,0.0184
2722.00,0.0184
2721.00,0.0185
2720.00,0.0185
2719.00,0.0185
2718.00,0.0185
2717.00,0.0185
2716.00,0.0185
2715.00,0.0185
2714.00,0.0184
2713.00,0.0184
2712.00,0.0184
2711.00,0.0184
2710.00,0.0183
2709.00,0.0183
2708.00,0.0182
2707.00,0.0182
2706.00,0.0181
2705.00,0.0181
2704.00,0.0180
2703.00,0.0180
2702.00,0.0180
2701.00,0.0179
2700.00,0.0179
2699.00,0.0179
2698.00,0.0178
2697.00,0.0178
2696.00,0.0178
2695.00,0.0178
2694.00,0.0178
2693.00,0.0178
2692.00,0.0177
2691.00,0.0177
2690.00,0.0177
2689.00,0.0177
2688.00,0.0178
2687.00,0.0178
2686.00,0.0178
2685.00,0.0178
2684.00,0.0178
2683.00,0.0178
2682.00,0.0178
2681.00,0.0178
2680.00,0.0179
2679.00,0.0179
2678.00,0.0179
2677.00,0.0180
2676.00,0.0180
2675.00,0.0180
2674.00,0.0181
2673.00,0.0181
2672.00,0.0182
2671.00,0.0182
2670.00,0.0183
2669.00,0.0183
2668.00,0.0183
2667.00,0.0183
2666.00,0.0183
2665.00,0.0183
2664.00,0.0182
2663.00,0.0182
2662.00,0.0181
2661.00,0.0180
2660.00,0.0179
2659.00,0.0178
2658.00,0.0177
2657.00,0.0176
2656.00,0.0175
2655.00,0.0174
2654.00,0.0174
2653.00,0.0173
2652.00,0.0172
2651.00,0.0172
2650.00,0.0171
2649.00,0.0170
2648.00,0.0170
2647.00,0.0169
2646.00,0.0168
2645.00,0.0168
2644.00,0.0167
2643.00,0.0167
2642.00,0.0166
2641.00,0.0166
2640.00,0.0166
2639.00,0.0165
2638.00,0.0165
2637.00,0.0165
2636.00,0.0164
2635.00,0.0164
2634.00,0.0164
2633.00,0.0164
2632.00,0.0164
2631.00,0.0164
2630.00,0.0164
2629.00,0.0164
2628.00,0.0164
2627.00,0.0164
2626.00,0.0164
2625.00,0.0164
2624.00,0.0164
2623.00,0.0165
2622.00,0.0165
2621.00,0.0165
2620.00,0.0165
2619.00,0.0165
2618.00,0.0166
2617.00,0.0166
2616.00,0.0166
2615.00,0.0166
2614.00,0.0166
2613.00,0.0167
2612.00,0.0167
2611.00,0.0167
2610.00,0.0167
2609.00,0.0167
2608.00,0.0167
2607.00,0.0167
2606.00,0.0167
2605.00,0.0167
2604.00,0.0168
2603.00,0.0168
2602.00,0.0168
2601.00,0.0168
2600.00,0.0169
2599.00,0.0169
2598.00,0.0169
2597.00,0.0169
2596.00,0.0170
2595.00,0.0170
2594.00,0.0170
2593.00,0.0171
2592.00,0.0171
2591.00,0.0171
2590.00,0.0171
2589.00,0.0172
2588.00,0.0172
2587.00,0.0172
2586.00,0.0172
2585.00,0.0173
2584.00,0.0173
2583.00,0.0174
2582.00,0.0174
2581.00,0.0174
2580.00,0.0174
2579.00,0.0174
2578.00,0.0173
2577.00,0.0173
2576.00,0.0173
2575.00,0.0173
2574.00,0.0173
2573.00,0.0173
2572.00,0.0172
2571.00,0.0172
2570.00,0.0171
2569.00,0.0171
2568.00,0.0170
2567.00,0.0170
2566.00,0.0169
2565.00,0.0168
2564.00,0.0168
2563.00,0.0167
2562.00,0.0166
2561.00,0.0165
2560.00,0.0164
2559.00,0.0163
2558.00,0.0162
2557.00,0.0161
2556.00,0.0161
2555.00,0.0160
2554.00,0.0159
2553.00,0.0158
2552.00,0.0158
2551.00,0.0157
2550.00,0.0157
2549.00,0.0156
2548.00,0.0156
2547.00,0.0155
2546.00,0.0154
2545.00,0.0153
2544.00,0.0153
2543.00,0.0152
2542.00,0.0151
2541.00,0.0151
2540.00,0.0150
2539.00,0.0150
2538.00,0.0150
2537.00,0.0150
2536.00,0.0150
2535.00,0.0150
2534.00,0.0150
2533.00,0.0150
2532.00,0.0150
2531.00,0.0150
2530.00,0.0150
2529.00,0.0150
2528.00,0.0150
2527.00,0.0149
2526.00,0.0149
2525.00,0.0149
2524.00,0.0148
2523.00,0.0148
2522.00,0.0147
2521.00,0.0147
2520.00,0.0147
2519.00,0.0148
2518.00,0.0148
2517.00,0.0148
2516.00,0.0148
2515.00,0.0148
2514.00,0.0148
2513.00,0.0148
2512.00,0.0148
2511.00,0.0148
2510.00,0.0148
2509.00,0.0148
2508.00,0.0148
2507.00,0.0148
2506.00,0.0148
2505.00,0.0148
2504.00,0.0148
2503.00,0.0149
2502.00,0.0150
2501.00,0.0151
2500.00,0.0152
2499.00,0.0152
2498.00,0.0153
2497.00,0.0153
2496.00,0.0154
2495.00,0.0154
2494.00,0.0154
2493.00,0.0154
2492.00,0.0154
2491.00,0.0153
2490.00,0.0153
2489.00,0.0152
2488.00,0.0152
2487.00,0.0152
2486.00,0.0151
2485.00,0.0151
2484.00,0.0151
2483.00,0.0151
2482.00,0.0151
2481.00,0.0151
2480.00,0.0151
2479.00,0.0151
2478.00,0.0151
2477.00,0.0151
2476.00,0.0150
2475.00,0.0150
2474.00,0.0150
2473.00,0.0150
2472.00,0.0149
2471.00,0.0149
2470.00,0.0149
2469.00,0.0149
2468.00,0.0149
2467.00,0.0149
2466.00,0.0148
2465.00,0.0148
2464.00,0.0148
2463.00,0.0148
2462.00,0.0148
2461.00,0.0148
2460.00,0.0148
2459.00,0.0147
2458.00,0.0147
2457.00,0.0147
2456.00,0.0147
2455.00,0.0147
2454.00,0.0146
2453.00,0.0146
2452.00,0.0146
2451.00,0.0145
2450.00,0.0145
2449.00,0.0145
2448.00,0.0145
2447.00,0.0145
2446.00,0.0144
2445.00,0.0144
2444.00,0.0143
2443.00,0.0143
2442.00,0.0142
2441.00,0.0141
2440.00,0.0141
2439.00,0.0141
2438.00,0.0141
2437.00,0.0140
2436.00,0.0140
2435.00,0.0140
2434.00,0.0140
2433.00,0.0140
2432.00,0.0141
2431.00,0.0141
2430.00,0.0141
2429.00,0.0141
2428.00,0.0140
2427.00,0.0140
2426.00,0.0140
2425.00,0.0140
2424.00,0.0140
2423.00,0.0139
2422.00,0.0139
2421.00,0.0139
2420.00,0.0139
2419.00,0.0138
2418.00,0.0138
2417.00,0.0138
2416.00,0.0138
2415.00,0.0138
2414.00,0.0138
2413.00,0.0138
2412.00,0.0138
2411.00,0.0138
2410.00,0.0138
2409.00,0.0137
2408.00,0.0137
2407.00,0.0137
2406.00,0.0136
2405.00,0.0136
2404.00,0.0137
2403.00,0.0137
2402.00,0.0137
2401.00,0.0137
2400.00,0.0137
2399.00,0.0137
2398.00,0.0136
2397.00,0.0136
2396.00,0.0137
2395.00,0.0137
2394.00,0.0137
2393.00,0.0136
2392.00,0.0136
2391.00,0.0136
2390.00,0.0135
2389.00,0.0135
2388.00,0.0134
2387.00,0.0134
2386.00,0.0133
2385.00,0.0133
2384.00,0.0133
2383.00,0.0132
2382.00,0.0132
2381.00,0.0131
2380.00,0.0130
2379.00,0.0130
2378.00,0.0129
2377.00,0.0130
2376.00,0.0130
2375.00,0.0130
2374.00,0.0131
2373.00,0.0131
2372.00,0.0131
2371.00,0.0131
2370.00,0.0131
2369.00,0.0131
2368.00,0.0131
2367.00,0.0130
2366.00,0.0130
2365.00,0.0130
2364.00,0.0130
2363.00,0.0130
2362.00,0.0130
2361.00,0.0130
2360.00,0.0130
2359.00,0.0130
2358.00,0.0130
2357.00,0.0131
2356.00,0.0131
2355.00,0.0132
2354.00,0.0132
2353.00,0.0133
2352.00,0.0132
2351.00,0.0132
2350.00,0.0131
2349.00,0.0131
2348.00,0.0130
2347.00,0.0129
2346.00,0.0127
2345.00,0.0126
2344.00,0.0126
2343.00,0.0127
2342.00,0.0128
2341.00,0.0129
2340.00,0.0130
2339.00,0.0130
2338.00,0.0130
2337.00,0.0130
2336.00,0.0130
2335.00,0.0130
2334.00,0.0130
2333.00,0.0130
2332.00,0.0130
2331.00,0.0129
2330.00,0.0129
2329.00,0.0130
2328.00,0.0132
2327.00,0.0133
2326.00,0.0134
2325.00,0.0133
2324.00,0.0132
2323.00,0.0130
2322.00,0.0129
2321.00,0.0129
2320.00,0.0129
2319.00,0.0129
2318.00,0.0130
2317.00,0.0130
2316.00,0.0130
2315.00,0.0129
2314.00,0.0129
2313.00,0.0129
2312.00,0.0128
2311.00,0.0128
2310.00,0.0128
2309.00,0.0127
2308.00,0.0127
2307.00,0.0127
2306.00,0.0126
2305.00,0.0126
2304.00,0.0126
2303.00,0.0125
2302.00,0.0125
2301.00,0.0125
2300.00,0.0125
2299.00,0.0125
2298.00,0.0125
2297.00,0.0125
2296.00,0.0126
2295.00,0.0126
2294.00,0.0126
2293.00,0.0125
2292.00,0.0125
2291.00,0.0125
2290.00,0.0125
2289.00,0.0124
2288.00,0.0124
2287.00,0.0123
2286.00,0.0123
2285.00,0.0122
2284.00,0.0122
2283.00,0.0122
2282.00,0.0121
2281.00,0.0121
2280.00,0.0121
2279.00,0.0120
2278.00,0.0120
2277.00,0.0119
2276.00,0.0119
2275.00,0.0119
2274.00,0.0119
2273.00,0.0119
2272.00,0.0119
2271.00,0.0119
2270.00,0.0119
2269.00,0.0118
2268.00,0.0118
2267.00,0.0118
2266.00,0.0118
2265.00,0.0119
2264.00,0.0120
2263.00,0.0120
2262.00,0.0120
2261.00,0.0120
2260.00,0.0120
2259.00,0.0120
2258.00,0.0120
2257.00,0.0120
2256.00,0.0120
2255.00,0.0121
2254.00,0.0121
2253.00,0.0121
2252.00,0.0120
2251.00,0.0120
2250.00,0.0120
2249.00,0.0120
2248.00,0.0120
2247.00,0.0120
2246.00,0.0119
2245.00,0.0118
2244.00,0.0118
2243.00,0.0117
2242.00,0.0117
2241.00,0.0117
2240.00,0.0117
2239.00,0.0116
2238.00,0.0116
2237.00,0.0116
2236.00,0.0116
2235.00,0.0115
2234.00,0.0115
2233.00,0.0114
2232.00,0.0114
2231.00,0.0114
2230.00,0.0114
2229.00,0.0114
2228.00,0.0114
2227.00,0.0114
2226.00,0.0114
2225.00,0.0114
2224.00,0.0113
2223.00,0.0113
2222.00,0.0114
2221.00,0.0114
2220.00,0.0116
2219.00,0.0116
2218.00,0.0116
2217.00,0.0116
2216.00,0.0116
2215.00,0.0116
2214.00,0.0115
2213.00,0.0115
2212.00,0.0115
2211.00,0.0114
2210.00,0.0114
2209.00,0.0113
2208.00,0.0113
2207.00,0.0113
2206.00,0.0113
2205.00,0.0114
2204.00,0.0114
2203.00,0.0114
2202.00,0.0113
2201.00,0.0113
2200.00,0.0113
2199.00,0.0113
2198.00,0.0113
2197.00,0.0113
2196.00,0.0114
2195.00,0.0114
2194.00,0.0115
2193.00,0.0117
2192.00,0.0118
2191.00,0.0118
2190.00,0.0117
2189.00,0.0117
2188.00,0.0116
2187.00,0.0115
2186.00,0.0113
2185.00,0.0112
2184.00,0.0111
2183.00,0.0110
2182.00,0.0110
2181.00,0.0111
2180.00,0.0112
2179.00,0.0112
2178.00,0.0112
2177.00,0.0111
2176.00,0.0112
2175.00,0.0112
2174.00,0.0112
2173.00,0.0113
2172.00,0.0113
2171.00,0.0113
2170.00,0.0112
2169.00,0.0112
2168.00,0.0112
2167.00,0.0111
2166.00,0.0110
2165.00,0.0110
2164.00,0.0110
2163.00,0.0109
2162.00,0.0105
2161.00,0.0101
2160.00,0.0097
2159.00,0.0096
2158.00,0.0097
2157.00,0.0100
2156.00,0.0102
2155.00,0.0103
2154.00,0.0102
2153.00,0.0102
2152.00,0.0102
2151.00,0.0102
2150.00,0.0101
2149.00,0.0100
2148.00,0.0101
2147.00,0.0101
2146.00,0.0101
2145.00,0.0101
2144.00,0.0102
2143.00,0.0101
2142.00,0.0100
2141.00,0.0100
2140.00,0.0101
2139.00,0.0101
2138.00,0.0100
2137.00,0.0100
2136.00,0.0099
2135.00,0.0099
2134.00,0.0099
2133.00,0.0099
2132.00,0.0100
2131.00,0.0101
2130.00,0.0101
2129.00,0.0101
2128.00,0.0101
2127.00,0.0101
2126.00,0.0101
2125.00,0.0101
2124.00,0.0102
2123.00,0.0102
2122.00,0.0101
2121.00,0.0101
2120.00,0.0102
2119.00,0.0102
2118.00,0.0102
2117.00,0.0102
2116.00,0.0103
2115.00,0.0103
2114.00,0.0102
2113.00,0.0101
2112.00,0.0101
2111.00,0.0100
2110.00,0.0099
2109.00,0.0099
2108.00,0.0099
2107.00,0.0099
2106.00,0.0099
2105.00,0.0099
2104.00,0.0099
2103.00,0.0099
2102.00,0.0099
2101.00,0.0100
2100.00,0.0101
2099.00,0.0100
2098.00,0.0099
2097.00,0.0098
2096.00,0.0098
2095.00,0.0097
2094.00,0.0097
2093.00,0.0098
2092.00,0.0098
2091.00,0.0098
2090.00,0.0098
2089.00,0.0098
2088.00,0.0098
2087.00,0.0098
2086.00,0.0097
2085.00,0.0097
2084.00,0.0097
2083.00,0.0096
2082.00,0.0096
2081.00,0.0096
2080.00,0.0096
2079.00,0.0096
2078.00,0.0096
2077.00,0.0096
2076.00,0.0096
2075.00,0.0095
2074.00,0.0093
2073.00,0.0093
2072.00,0.0093
2071.00,0.0093
2070.00,0.0092
2069.00,0.0092
2068.00,0.0092
2067.00,0.0091
2066.00,0.0090
2065.00,0.0090
2064.00,0.0091
2063.00,0.0090
2062.00,0.0089
2061.00,0.0089
2060.00,0.0090
2059.00,0.0089
2058.00,0.0088
2057.00,0.0087
2056.00,0.0087
2055.00,0.0088
2054.00,0.0089
2053.00,0.0090
2052.00,0.0091
2051.00,0.0089
2050.00,0.0086
2049.00,0.0085
2048.00,0.0086
2047.00,0.0086
2046.00,0.0086
2045.00,0.0086
2044.00,0.0086
2043.00,0.0086
2042.00,0.0086
2041.00,0.0086
2040.00,0.0088
2039.00,0.0089
2038.00,0.0089
2037.00,0.0088
2036.00,0.0088
2035.00,0.0088
2034.00,0.0086
2033.00,0.0086
2032.00,0.0086
2031.00,0.0086
2030.00,0.0086
2029.00,0.0087
2028.00,0.0088
2027.00,0.0087
2026.00,0.0086
2025.00,0.0086
2024.00,0.0087
2023.00,0.0087
2022.00,0.0087
2021.00,0.0087
2020.00,0.0088
2019.00,0.0087
2018.00,0.0086
2017.00,0.0086
2016.00,0.0086
2015.00,0.0085
2014.00,0.0083
2013.00,0.0082
2012.00,0.0082
2011.00,0.0082
2010.00,0.0081
2009.00,0.0080
2008.00,0.0080
2007.00,0.0079
2006.00,0.0079
2005.00,0.0080
2004.00,0.0082
2003.00,0.0084
2002.00,0.0084
2001.00,0.0085
2000.00,0.0086
1999.00,0.0085
1998.00,0.0084
1997.00,0.0084
1996.00,0.0085
1995.00,0.0086
1994.00,0.0085
1993.00,0.0086
1992.00,0.0088
1991.00,0.0087
1990.00,0.0086
1989.00,0.0085
1988.00,0.0086
1987.00,0.0086
1986.00,0.0085
1985.00,0.0086
1984.00,0.0088
1983.00,0.0089
1982.00,0.0088
1981.00,0.0086
1980.00,0.0085
1979.00,0.0082
1978.00,0.0079
1977.00,0.0078
1976.00,0.0078
1975.00,0.0077
1974.00,0.0076
1973.00,0.0076
1972.00,0.0077
1971.00,0.0077
1970.00,0.0076
1969.00,0.0076
1968.00,0.0076
1967.00,0.0076
1966.00,0.0075
1965.00,0.0074
1964.00,0.0074
1963.00,0.0073
1962.00,0.0070
1961.00,0.0069
1960.00,0.0070
1959.00,0.0070
1958.00,0.0071
1957.00,0.0072
1956.00,0.0074
1955.00,0.0074
1954.00,0.0073
1953.00,0.0072
1952.00,0.0073
1951.00,0.0072
1950.00,0.0071
1949.00,0.0071
1948.00,0.0071
1947.00,0.0070
1946.00,0.0069
1945.00,0.0068
1944.00,0.0068
1943.00,0.0068
1942.00,0.0067
1941.00,0.0067
1940.00,0.0068
1939.00,0.0068
1938.00,0.0069
1937.00,0.0070
1936.00,0.0071
1935.00,0.0072
1934.00,0.0071
1933.00,0.0072
1932.00,0.0072
1931.00,0.0072
1930.00,0.0072
1929.00,0.0073
1928.00,0.0074
1927.00,0.0074
1926.00,0.0074
1925.00,0.0073
1924.00,0.0074
1923.00,0.0074
1922.00,0.0074
1921.00,0.0073
1920.00,0.0073
1919.00,0.0072
1918.00,0.0072
1917.00,0.0071
1916.00,0.0070
1915.00,0.0070
1914.00,0.0071
1913.00,0.0073
1912.00,0.0076
1911.00,0.0077
1910.00,0.0077
1909.00,0.0078
1908.00,0.0079
1907.00,0.0079
1906.00,0.0079
1905.00,0.0080
1904.00,0.0081
1903.00,0.0081
1902.00,0.0081
1901.00,0.0080
1900.00,0.0079
1899.00,0.0078
1898.00,0.0077
1897.00,0.0077
1896.00,0.0077
1895.00,0.0076
1894.00,0.0075
1893.00,0.0074
1892.00,0.0074
1891.00,0.0074
1890.00,0.0074
1889.00,0.0074
1888.00,0.0073
1887.00,0.0072
1886.00,0.0072
1885.00,0.0074
1884.00,0.0076
1883.00,0.0077
1882.00,0.0077
1881.00,0.0078
1880.00,0.0080
1879.00,0.0081
1878.00,0.0081
1877.00,0.0081
1876.00,0.0082
1875.00,0.0082
1874.00,0.0082
1873.00,0.0082
1872.00,0.0082
1871.00,0.0082
1870.00,0.0080
1869.00,0.0079
1868.00,0.0078
1867.00,0.0075
1866.00,0.0074
1865.00,0.0074
1864.00,0.0076
1863.00,0.0078
1862.00,0.0078
1861.00,0.0079
1860.00,0.0080
1859.00,0.0080
1858.00,0.0081
1857.00,0.0082
1856.00,0.0083
1855.00,0.0084
1854.00,0.0084
1853.00,0.0085
1852.00,0.0086
1851.00,0.0085
1850.00,0.0084
1849.00,0.0083
1848.00,0.0083
1847.00,0.0081
1846.00,0.0079
1845.00,0.0075
1844.00,0.0072
1843.00,0.0081
1842.00,0.0080
1841.00,0.0079
1840.00,0.0079
1839.00,0.0078
1838.00,0.0078
1837.00,0.0078
1836.00,0.0078
1835.00,0.0078
1834.00,0.0078
1833.00,0.0079
1832.00,0.0080
1831.00,0.0080
1830.00,0.0079
1829.00,0.0077
1828.00,0.0075
1827.00,0.0075
1826.00,0.0076
1825.00,0.0078
1824.00,0.0079
1823.00,0.0078
1822.00,0.0076
1821.00,0.0077
1820.00,0.0078
1819.00,0.0078
1818.00,0.0078
1817.00,0.0077
1816.00,0.0078
1815.00,0.0078
1814.00,0.0077
1813.00,0.0078
1812.00,0.0079
1811.00,0.0079
1810.00,0.0078
1809.00,0.0078
1808.00,0.0077
1807.00,0.0078
1806.00,0.0078
1805.00,0.0078
1804.00,0.0079
1803.00,0.0079
1802.00,0.0079
1801.00,0.0078
1800.00,0.0076
1799.00,0.0074
1798.00,0.0072
1797.00,0.0072
1796.00,0.0073
1795.00,0.0073
1794.00,0.0072
1793.00,0.0070
1792.00,0.0067
1791.00,0.0064
1790.00,0.0062
1789.00,0.0064
1788.00,0.0068
1787.00,0.0073
1786.00,0.0075
1785.00,0.0077
1784.00,0.0078
1783.00,0.0078
1782.00,0.0079
1781.00,0.0081
1780.00,0.0084
1779.00,0.0086
1778.00,0.0087
1777.00,0.0089
1776.00,0.0092
1775.00,0.0094
1774.00,0.0093
1773.00,0.0090
1772.00,0.0087
1771.00,0.0083
1770.00,0.0082
1769.00,0.0086
1768.00,0.0092
1767.00,0.0095
1766.00,0.0096
1765.00,0.0096
1764.00,0.0098
1763.00,0.0098
1762.00,0.0096
1761.00,0.0092
1760.00,0.0089
1759.00,0.0089
1758.00,0.0090
1757.00,0.0092
1756.00,0.0093
1755.00,0.0091
1754.00,0.0090
1753.00,0.0090
1752.00,0.0091
1751.00,0.0089
1750.00,0.0087
1749.00,0.0086
1748.00,0.0088
1747.00,0.0091
1746.00,0.0093
1745.00,0.0097
1744.00,0.0102
1743.00,0.0106
1742.00,0.0108
1741.00,0.0111
1740.00,0.0115
1739.00,0.0120
1738.00,0.0126
1737.00,0.0133
1736.00,0.0144
1735.00,0.0156
1734.00,0.0168
1733.00,0.0179
1732.00,0.0191
1731.00,0.0209
1730.00,0.0229
1729.00,0.0246
1728.00,0.0256
1727.00,0.0259
1726.00,0.0260
1725.00,0.0262
1724.00,0.0267
1723.00,0.0272
1722.00,0.0278
1721.00,0.0287
1720.00,0.0301
1719.00,0.0320
1718.00,0.0345
1717.00,0.0380
1716.00,0.0425
1715.00,0.0483
1714.00,0.0555
1713.00,0.0636
1712.00,0.0721
1711.00,0.0806
1710.00,0.0889
1709.00,0.0968
1708.00,0.1045
1707.00,0.1125
1706.00,0.1214
1705.00,0.1307
1704.00,0.1387
1703.00,0.1454
1702.00,0.1524
1701.00,0.1617
1700.00,0.1721
1699.00,0.1796
1698.00,0.1837
1697.00,0.1865
1696.00,0.1885
1695.00,0.1889
1694.00,0.1875
1693.00,0.1847
1692.00,0.1807
1691.00,0.1745
1690.00,0.1653
1689.00,0.1534
1688.00,0.1400
1687.00,0.1266
1686.00,0.1130
1685.00,0.0984
1684.00,0.0844
1683.00,0.0742
1682.00,0.0684
1681.00,0.0655
1680.00,0.0640
1679.00,0.0634
1678.00,0.0637
1677.00,0.0654
1676.00,0.0692
1675.00,0.0753
1674.00,0.0826
1673.00,0.0901
1672.00,0.0985
1671.00,0.1086
1670.00,0.1204
1669.00,0.1325
1668.00,0.1434
1667.00,0.1527
1666.00,0.1611
1665.00,0.1693
1664.00,0.1783
1663.00,0.1882
1662.00,0.1980
1661.00,0.2067
1660.00,0.2146
1659.00,0.2220
1658.00,0.2287
1657.00,0.2339
1656.00,0.2374
1655.00,0.2402
1654.00,0.2441
1653.00,0.2493
1652.00,0.2524
1651.00,0.2531
1650.00,0.2540
1649.00,0.2554
1648.00,0.2567
1647.00,0.2573
1646.00,0.2562
1645.00,0.2530
1644.00,0.2486
1643.00,0.2436
1642.00,0.2374
1641.00,0.2298
1640.00,0.2211
1639.00,0.2119
1638.00,0.2021
1637.00,0.1913
1636.00,0.1796
1635.00,0.1682
1634.00,0.1584
1633.00,0.1507
1632.00,0.1444
1631.00,0.1388
1630.00,0.1333
1629.00,0.1281
1628.00,0.1233
1627.00,0.1191
1626.00,0.1155
1625.00,0.1120
1624.00,0.1085
1623.00,0.1048
1622.00,0.1013
1621.00,0.0981
1620.00,0.0955
1619.00,0.0936
1618.00,0.0923
1617.00,0.0921
1616.00,0.0927
1615.00,0.0941
1614.00,0.0959
1613.00,0.0980
1612.00,0.0996
1611.00,0.1003
1610.00,0.0997
1609.00,0.0980
1608.00,0.0957
1607.00,0.0933
1606.00,0.0913
1605.00,0.0902
1604.00,0.0899
1603.00,0.0901
1602.00,0.0905
1601.00,0.0904
1600.00,0.0896
1599.00,0.0880
1598.00,0.0857
1597.00,0.0826
1596.00,0.0786
1595.00,0.0742
1594.00,0.0695
1593.00,0.0647
1592.00,0.0602
1591.00,0.0561
1590.00,0.0526
1589.00,0.0496
1588.00,0.0470
1587.00,0.0450
1586.00,0.0434
1585.00,0.0421
1584.00,0.0410
1583.00,0.0403
1582.00,0.0399
1581.00,0.0399
1580.00,0.0401
1579.00,0.0406
1578.00,0.0415
1577.00,0.0430
1576.00,0.0454
1575.00,0.0484
1574.00,0.0519
1573.00,0.0559
1572.00,0.0603
1571.00,0.0650
1570.00,0.0699
1569.00,0.0746
1568.00,0.0784
1567.00,0.0817
1566.00,0.0848
1565.00,0.0877
1564.00,0.0899
1563.00,0.0911
1562.00,0.0916
1561.00,0.0917
1560.00,0.0928
1559.00,0.0961
1558.00,0.1001
1557.00,0.1038
1556.00,0.1088
1555.00,0.1157
1554.00,0.1233
1553.00,0.1302
1552.00,0.1359
1551.00,0.1406
1550.00,0.1440
1549.00,0.1456
1548.00,0.1450
1547.00,0.1425
1546.00,0.1385
1545.00,0.1332
1544.00,0.1271
1543.00,0.1201
1542.00,0.1124
1541.00,0.1036
1540.00,0.0941
1539.00,0.0852
1538.00,0.0785
1537.00,0.0742
1536.00,0.0713
1535.00,0.0682
1534.00,0.0642
1533.00,0.0601
1532.00,0.0565
1531.00,0.0539
1530.00,0.0520
1529.00,0.0505
1528.00,0.0493
1527.00,0.0483
1526.00,0.0473
1525.00,0.0467
1524.00,0.0463
1523.00,0.0464
1522.00,0.0475
1521.00,0.0499
1520.00,0.0532
1519.00,0.0573
1518.00,0.0624
1517.00,0.0678
1516.00,0.0721
1515.00,0.0743
1514.00,0.0751
1513.00,0.0756
1512.00,0.0766
1511.00,0.0783
1510.00,0.0808
1509.00,0.0841
1508.00,0.0881
1507.00,0.0923
1506.00,0.0949
1505.00,0.0952
1504.00,0.0949
1503.00,0.0953
1502.00,0.0959
1501.00,0.0964
1500.00,0.0967
1499.00,0.0969
1498.00,0.0976
1497.00,0.0990
1496.00,0.1012
1495.00,0.1038
1494.00,0.1067
1493.00,0.1098
1492.00,0.1131
1491.00,0.1167
1490.00,0.1204
1489.00,0.1237
1488.00,0.1262
1487.00,0.1279
1486.00,0.1291
1485.00,0.1298
1484.00,0.1299
1483.00,0.1295
1482.00,0.1288
1481.00,0.1277
1480.00,0.1260
1479.00,0.1239
1478.00,0.1213
1477.00,0.1184
1476.00,0.1151
1475.00,0.1116
1474.00,0.1078
1473.00,0.1040
1472.00,0.1004
1471.00,0.0973
1470.00,0.0949
1469.00,0.0932
1468.00,0.0920
1467.00,0.0910
1466.00,0.0906
1465.00,0.0910
1464.00,0.0922
1463.00,0.0940
1462.00,0.0963
1461.00,0.0990
1460.00,0.1017
1459.00,0.1042
1458.00,0.1068
1457.00,0.1095
1456.00,0.1118
1455.00,0.1132
1454.00,0.1148
1453.00,0.1166
1452.00,0.1183
1451.00,0.1196
1450.00,0.1209
1449.00,0.1227
1448.00,0.1249
1447.00,0.1271
1446.00,0.1291
1445.00,0.1309
1444.00,0.1325
1443.00,0.1338
1442.00,0.1348
1441.00,0.1355
1440.00,0.1358
1439.00,0.1359
1438.00,0.1362
1437.00,0.1375
1436.00,0.1395
1435.00,0.1418
1434.00,0.1445
1433.00,0.1477
1432.00,0.1507
1431.00,0.1529
1430.00,0.1535
1429.00,0.1521
1428.00,0.1487
1427.00,0.1437
1426.00,0.1375
1425.00,0.1306
1424.00,0.1232
1423.00,0.1159
1422.00,0.1093
1421.00,0.1031
1420.00,0.0972
1419.00,0.0919
1418.00,0.0877
1417.00,0.0847
1416.00,0.0827
1415.00,0.0812
1414.00,0.0798
1413.00,0.0786
1412.00,0.0777
1411.00,0.0774
1410.00,0.0777
1409.00,0.0783
1408.00,0.0792
1407.00,0.0802
1406.00,0.0811
1405.00,0.0817
1404.00,0.0818
1403.00,0.0815
1402.00,0.0807
1401.00,0.0797
1400.00,0.0783
1399.00,0.0766
1398.00,0.0746
1397.00,0.0724
1396.00,0.0701
1395.00,0.0678
1394.00,0.0658
1393.00,0.0641
1392.00,0.0630
1391.00,0.0622
1390.00,0.0616
1389.00,0.0608
1388.00,0.0600
1387.00,0.0593
1386.00,0.0589
1385.00,0.0590
1384.00,0.0595
1383.00,0.0605
1382.00,0.0618
1381.00,0.0632
1380.00,0.0648
1379.00,0.0664
1378.00,0.0679
1377.00,0.0692
1376.00,0.0703
1375.00,0.0713
1374.00,0.0723
1373.00,0.0730
1372.00,0.0737
1371.00,0.0745
1370.00,0.0757
1369.00,0.0771
1368.00,0.0789
1367.00,0.0814
1366.00,0.0846
1365.00,0.0888
1364.00,0.0942
1363.00,0.1004
1362.00,0.1063
1361.00,0.1109
1360.00,0.1134
1359.00,0.1136
1358.00,0.1117
1357.00,0.1077
1356.00,0.1021
1355.00,0.0956
1354.00,0.0886
1353.00,0.0818
1352.00,0.0754
1351.00,0.0698
1350.00,0.0649
1349.00,0.0606
1348.00,0.0568
1347.00,0.0536
1346.00,0.0508
1345.00,0.0484
1344.00,0.0464
1343.00,0.0448
1342.00,0.0435
1341.00,0.0425
1340.00,0.0419
1339.00,0.0417
1338.00,0.0418
1337.00,0.0424
1336.00,0.0435
1335.00,0.0454
1334.00,0.0481
1333.00,0.0517
1332.00,0.0561
1331.00,0.0608
1330.00,0.0653
1329.00,0.0689
1328.00,0.0710
1327.00,0.0714
1326.00,0.0703
1325.00,0.0681
1324.00,0.0651
1323.00,0.0619
1322.00,0.0587
1321.00,0.0556
1320.00,0.0526
1319.00,0.0499
1318.00,0.0473
1317.00,0.0450
1316.00,0.0430
1315.00,0.0413
1314.00,0.0398
1313.00,0.0385
1312.00,0.0373
1311.00,0.0364
1310.00,0.0356
1309.00,0.0349
1308.00,0.0345
1307.00,0.0342
1306.00,0.0340
1305.00,0.0340
1304.00,0.0340
1303.00,0.0342
1302.00,0.0344
1301.00,0.0346
1300.00,0.0349
1299.00,0.0354
1298.00,0.0363
1297.00,0.0376
1296.00,0.0396
1295.00,0.0424
1294.00,0.0460
1293.00,0.0504
1292.00,0.0554
1291.00,0.0607
1290.00,0.0657
1289.00,0.0702
1288.00,0.0737
1287.00,0.0758
1286.00,0.0766
1285.00,0.0760
1284.00,0.0740
1283.00,0.0711
1282.00,0.0672
1281.00,0.0627
1280.00,0.0577
1279.00,0.0528
1278.00,0.0483
1277.00,0.0444
1276.00,0.0412
1275.00,0.0387
1274.00,0.0367
1273.00,0.0351
1272.00,0.0340
1271.00,0.0333
1270.00,0.0332
1269.00,0.0337
1268.00,0.0350
1267.00,0.0376
1266.00,0.0416
1265.00,0.0473
1264.00,0.0543
1263.00,0.0621
1262.00,0.0695
1261.00,0.0756
1260.00,0.0793
1259.00,0.0806
1258.00,0.0798
1257.00,0.0777
1256.00,0.0752
1255.00,0.0731
1254.00,0.0718
1253.00,0.0714
1252.00,0.0720
1251.00,0.0737
1250.00,0.0766
1249.00,0.0810
1248.00,0.0869
1247.00,0.0947
1246.00,0.1042
1245.00,0.1151
1244.00,0.1265
1243.00,0.1375
1242.00,0.1469
1241.00,0.1540
1240.00,0.1585
1239.00,0.1602
1238.00,0.1595
1237.00,0.1570
1236.00,0.1536
1235.00,0.1503
1234.00,0.1477
1233.00,0.1465
1232.00,0.1468
1231.00,0.1484
1230.00,0.1507
1229.00,0.1531
1228.00,0.1548
1227.00,0.1552
1226.00,0.1539
1225.00,0.1508
1224.00,0.1460
1223.00,0.1402
1222.00,0.1339
1221.00,0.1276
1220.00,0.1220
1219.00,0.1174
1218.00,0.1140
1217.00,0.1116
1216.00,0.1101
1215.00,0.1090
1214.00,0.1077
1213.00,0.1059
1212.00,0.1032
1211.00,0.0998
1210.00,0.0957
1209.00,0.0912
1208.00,0.0867
1207.00,0.0823
1206.00,0.0782
1205.00,0.0745
1204.00,0.0713
1203.00,0.0686
1202.00,0.0666
1201.00,0.0650
1200.00,0.0641
1199.00,0.0639
1198.00,0.0643
1197.00,0.0653
1196.00,0.0669
1195.00,0.0689
1194.00,0.0709
1193.00,0.0727
1192.00,0.0739
1191.00,0.0745
1190.00,0.0745
1189.00,0.0739
1188.00,0.0730
1187.00,0.0716
1186.00,0.0699
1185.00,0.0675
1184.00,0.0647
1183.00,0.0614
1182.00,0.0579
1181.00,0.0545
1180.00,0.0514
1179.00,0.0488
1178.00,0.0470
1177.00,0.0462
1176.00,0.0470
1175.00,0.0498
1174.00,0.0538
1173.00,0.0573
1172.00,0.0584
1171.00,0.0566
1170.00,0.0528
1169.00,0.0486
1168.00,0.0452
1167.00,0.0426
1166.00,0.0408
1165.00,0.0394
1164.00,0.0383
1163.00,0.0373
1162.00,0.0365
1161.00,0.0358
1160.00,0.0352
1159.00,0.0347
1158.00,0.0343
1157.00,0.0339
1156.00,0.0335
1155.00,0.0331
1154.00,0.0327
1153.00,0.0324
1152.00,0.0320
1151.00,0.0316
1150.00,0.0313
1149.00,0.0310
1148.00,0.0307
1147.00,0.0305
1146.00,0.0303
1145.00,0.0301
1144.00,0.0299
1143.00,0.0298
1142.00,0.0297
1141.00,0.0296
1140.00,0.0296
1139.00,0.0296
1138.00,0.0296
1137.00,0.0296
1136.00,0.0297
1135.00,0.0298
1134.00,0.0298
1133.00,0.0299
1132.00,0.0300
1131.00,0.0300
1130.00,0.0301
1129.00,0.0303
1128.00,0.0304
1127.00,0.0305
1126.00,0.0307
1125.00,0.0308
1124.00,0.0308
1123.00,0.0306
1122.00,0.0303
1121.00,0.0298
1120.00,0.0294
1119.00,0.0290
1118.00,0.0287
1117.00,0.0286
1116.00,0.0288
1115.00,0.0294
1114.00,0.0306
1113.00,0.0324
1112.00,0.0348
1111.00,0.0376
1110.00,0.0403
1109.00,0.0422
1108.00,0.0427
1107.00,0.0419
1106.00,0.0399
1105.00,0.0373
1104.00,0.0347
1103.00,0.0324
1102.00,0.0305
1101.00,0.0290
1100.00,0.0279
1099.00,0.0270
1098.00,0.0263
1097.00,0.0258
1096.00,0.0255
1095.00,0.0252
1094.00,0.0250
1093.00,0.0248
1092.00,0.0247
1091.00,0.0246
1090.00,0.0247
1089.00,0.0248
1088.00,0.0251
1087.00,0.0254
1086.00,0.0259
1085.00,0.0264
1084.00,0.0269
1083.00,0.0275
1082.00,0.0279
1081.00,0.0284
1080.00,0.0288
1079.00,0.0293
1078.00,0.0298
1077.00,0.0303
1076.00,0.0307
1075.00,0.0311
1074.00,0.0313
1073.00,0.0314
1072.00,0.0313
1071.00,0.0311
1070.00,0.0308
1069.00,0.0304
1068.00,0.0299
1067.00,0.0294
1066.00,0.0288
1065.00,0.0281
1064.00,0.0274
1063.00,0.0267
1062.00,0.0260
1061.00,0.0253
1060.00,0.0247
1059.00,0.0243
1058.00,0.0239
1057.00,0.0236
1056.00,0.0235
1055.00,0.0233
1054.00,0.0233
1053.00,0.0232
1052.00,0.0232
1051.00,0.0233
1050.00,0.0234
1049.00,0.0236
1048.00,0.0239
1047.00,0.0243
1046.00,0.0247
1045.00,0.0252
1044.00,0.0258
1043.00,0.0266
1042.00,0.0276
1041.00,0.0288
1040.00,0.0303
1039.00,0.0322
1038.00,0.0344
1037.00,0.0370
1036.00,0.0401
1035.00,0.0438
1034.00,0.0480
1033.00,0.0528
1032.00,0.0580
1031.00,0.0636
1030.00,0.0692
1029.00,0.0744
1028.00,0.0790
1027.00,0.0827
1026.00,0.0852
1025.00,0.0861
1024.00,0.0854
1023.00,0.0832
1022.00,0.0799
1021.00,0.0758
1020.00,0.0715
1019.00,0.0672
1018.00,0.0632
1017.00,0.0594
1016.00,0.0559
1015.00,0.0526
1014.00,0.0494
1013.00,0.0463
1012.00,0.0433
1011.00,0.0408
1010.00,0.0387
1009.00,0.0371
1008.00,0.0358
1007.00,0.0345
1006.00,0.0332
1005.00,0.0320
1004.00,0.0308
1003.00,0.0298
1002.00,0.0288
1001.00,0.0279
1000.00,0.0270
999.00,0.0263
998.00,0.0256
997.00,0.0250
996.00,0.0245
995.00,0.0241
994.00,0.0238
993.00,0.0236
992.00,0.0236
991.00,0.0236
990.00,0.0239
989.00,0.0243
988.00,0.0250
987.00,0.0261
986.00,0.0277
985.00,0.0298
984.00,0.0325
983.00,0.0359
982.00,0.0401
981.00,0.0449
980.00,0.0505
979.00,0.0566
978.00,0.0630
977.00,0.0695
976.00,0.0755
975.00,0.0808
974.00,0.0850
973.00,0.0879
972.00,0.0892
971.00,0.0888
970.00,0.0863
969.00,0.0817
968.00,0.0755
967.00,0.0683
966.00,0.0607
965.00,0.0535
964.00,0.0472
963.00,0.0419
962.00,0.0378
961.00,0.0345
960.00,0.0319
959.00,0.0298
958.00,0.0282
957.00,0.0269
956.00,0.0260
955.00,0.0254
954.00,0.0248
953.00,0.0241
952.00,0.0234
951.00,0.0227
950.00,0.0220
949.00,0.0215
948.00,0.0211
947.00,0.0207
946.00,0.0204
945.00,0.0201
944.00,0.0199
943.00,0.0197
942.00,0.0195
941.00,0.0193
940.00,0.0192
939.00,0.0191
938.00,0.0190
937.00,0.0190
936.00,0.0190
935.00,0.0192
934.00,0.0195
933.00,0.0199
932.00,0.0205
931.00,0.0212
930.00,0.0219
929.00,0.0226
928.00,0.0231
927.00,0.0235
926.00,0.0237
925.00,0.0236
924.00,0.0231
923.00,0.0223
922.00,0.0213
921.00,0.0203
920.00,0.0195
919.00,0.0189
918.00,0.0185
917.00,0.0183
916.00,0.0182
915.00,0.0180
914.00,0.0179
913.00,0.0178
912.00,0.0177
911.00,0.0176
910.00,0.0175
909.00,0.0175
908.00,0.0174
907.00,0.0174
906.00,0.0173
905.00,0.0172
904.00,0.0171
903.00,0.0171
902.00,0.0171
901.00,0.0171
900.00,0.0171
899.00,0.0172
898.00,0.0173
897.00,0.0173
896.00,0.0174
895.00,0.0174
894.00,0.0175
893.00,0.0176
892.00,0.0177
891.00,0.0179
890.00,0.0180
889.00,0.0182
888.00,0.0184
887.00,0.0188
886.00,0.0193
885.00,0.0199
884.00,0.0205
883.00,0.0214
882.00,0.0223
881.00,0.0233
880.00,0.0244
879.00,0.0255
878.00,0.0264
877.00,0.0273
876.00,0.0280
875.00,0.0285
874.00,0.0289
873.00,0.0292
872.00,0.0295
871.00,0.0297
870.00,0.0301
869.00,0.0305
868.00,0.0310
867.00,0.0318
866.00,0.0328
865.00,0.0340
864.00,0.0355
863.00,0.0374
862.00,0.0394
861.00,0.0417
860.00,0.0440
859.00,0.0457
858.00,0.0465
857.00,0.0459
856.00,0.0439
855.00,0.0411
854.00,0.0380
853.00,0.0350
852.00,0.0323
851.00,0.0300
850.00,0.0283
849.00,0.0270
848.00,0.0264
847.00,0.0263
846.00,0.0271
845.00,0.0288
844.00,0.0321
843.00,0.0375
842.00,0.0453
841.00,0.0554
840.00,0.0665
839.00,0.0768
838.00,0.0841
837.00,0.0870
836.00,0.0847
835.00,0.0778
834.00,0.0683
833.00,0.0583
832.00,0.0497
831.00,0.0430
830.00,0.0380
829.00,0.0345
828.00,0.0320
827.00,0.0303
826.00,0.0291
825.00,0.0282
824.00,0.0277
823.00,0.0273
822.00,0.0271
821.00,0.0270
820.00,0.0272
819.00,0.0277
818.00,0.0285
817.00,0.0296
816.00,0.0312
815.00,0.0336
814.00,0.0371
813.00,0.0422
812.00,0.0497
811.00,0.0598
810.00,0.0713
809.00,0.0814
808.00,0.0871
807.00,0.0862
806.00,0.0794
805.00,0.0698
804.00,0.0608
803.00,0.0544
802.00,0.0514
801.00,0.0512
800.00,0.0531
799.00,0.0562
798.00,0.0595
797.00,0.0618
796.00,0.0621
795.00,0.0601
794.00,0.0561
793.00,0.0511
792.00,0.0461
791.00,0.0416
790.00,0.0378
789.00,0.0349
788.00,0.0326
787.00,0.0309
786.00,0.0296
785.00,0.0286
784.00,0.0279
783.00,0.0273
782.00,0.0269
781.00,0.0265
780.00,0.0263
779.00,0.0262
778.00,0.0261
777.00,0.0260
776.00,0.0259
775.00,0.0259
774.00,0.0259
773.00,0.0260
772.00,0.0262
771.00,0.0265
770.00,0.0268
769.00,0.0273
768.00,0.0280
767.00,0.0291
766.00,0.0304
765.00,0.0328
764.00,0.0374
763.00,0.0454
762.00,0.0570
761.00,0.0707
760.00,0.0829
759.00,0.0889
758.00,0.0860
757.00,0.0759
756.00,0.0639
755.00,0.0551
754.00,0.0516
753.00,0.0531
752.00,0.0591
751.00,0.0701
750.00,0.0876
749.00,0.1129
748.00,0.1456
747.00,0.1814
746.00,0.2114
745.00,0.2269
744.00,0.2258
743.00,0.2142
742.00,0.1998
741.00,0.1859
740.00,0.1725
739.00,0.1588
738.00,0.1452
737.00,0.1326
736.00,0.1214
735.00,0.1121
734.00,0.1046
733.00,0.0987
732.00,0.0939
731.00,0.0900
730.00,0.0871
729.00,0.0849
728.00,0.0832
727.00,0.0815
726.00,0.0798
725.00,0.0780
724.00,0.0761
723.00,0.0746
722.00,0.0736
721.00,0.0732
720.00,0.0735
719.00,0.0744
718.00,0.0758
717.00,0.0775
716.00,0.0791
715.00,0.0801
714.00,0.0806
713.00,0.0806
712.00,0.0798
711.00,0.0779
710.00,0.0745
709.00,0.0700
708.00,0.0656
707.00,0.0623
706.00,0.0607
705.00,0.0604
704.00,0.0612
703.00,0.0630
702.00,0.0658
701.00,0.0688
700.00,0.0714
699.00,0.0730
698.00,0.0740
697.00,0.0748
696.00,0.0761
695.00,0.0780
694.00,0.0802
693.00,0.0827
692.00,0.0852
691.00,0.0877
690.00,0.0901
689.00,0.0923
688.00,0.0940
687.00,0.0953
686.00,0.0960
685.00,0.0963
684.00,0.0961
683.00,0.0955
682.00,0.0946
681.00,0.0934
680.00,0.0919
679.00,0.0901
678.00,0.0882
677.00,0.0862
676.00,0.0842
675.00,0.0822
674.00,0.0801
673.00,0.0780
672.00,0.0760
671.00,0.0742
670.00,0.0725
669.00,0.0709
668.00,0.0691
667.00,0.0674
666.00,0.0656
665.00,0.0637
664.00,0.0618
663.00,0.0602
662.00,0.0587
661.00,0.0573
660.00,0.0560
659.00,0.0548
658.00,0.0536
657.00,0.0526
656.00,0.0517
655.00,0.0512
654.00,0.0511
653.00,0.0516
652.00,0.0528
651.00,0.0545
650.00,0.0564
649.00,0.0582
648.00,0.0596
647.00,0.0603
646.00,0.0604
645.00,0.0597
644.00,0.0584
643.00,0.0567
642.00,0.0548
641.00,0.0527
640.00,0.0503
639.00,0.0480
638.00,0.0460
637.00,0.0444
636.00,0.0433
635.00,0.0426
634.00,0.0422
633.00,0.0423
632.00,0.0428
631.00,0.0441
630.00,0.0462
629.00,0.0490
628.00,0.0523
627.00,0.0556
626.00,0.0582
625.00,0.0600
624.00,0.0609
623.00,0.0615
622.00,0.0621
621.00,0.0630
620.00,0.0643
619.00,0.0658
618.00,0.0675
617.00,0.0697
616.00,0.0730
615.00,0.0782
614.00,0.0859
613.00,0.0963
612.00,0.1089
611.00,0.1216
610.00,0.1316
609.00,0.1358
608.00,0.1336
607.00,0.1262
606.00,0.1165
605.00,0.1068
604.00,0.0979
603.00,0.0893
602.00,0.0810
601.00,0.0733
600.00,0.0666
599.00,0.0611
598.00,0.0566
597.00,0.0529
596.00,0.0499
595.00,0.0475
594.00,0.0454
593.00,0.0436
592.00,0.0420
591.00,0.0405
590.00,0.0392
589.00,0.0379
588.00,0.0369
587.00,0.0359
586.00,0.0350
585.00,0.0340
584.00,0.0331
583.00,0.0323
582.00,0.0316
581.00,0.0310
580.00,0.0303
579.00,0.0297
578.00,0.0291
577.00,0.0285
576.00,0.0279
575.00,0.0273
574.00,0.0269
573.00,0.0264
572.00,0.0260
571.00,0.0257
570.00,0.0254
569.00,0.0250
568.00,0.0246
567.00,0.0243
566.00,0.0240
565.00,0.0237
564.00,0.0233
563.00,0.0231
562.00,0.0229
561.00,0.0227
560.00,0.0226
559.00,0.0226
558.00,0.0225
557.00,0.0225
556.00,0.0226
555.00,0.0228
554.00,0.0230
553.00,0.0231
552.00,0.0231
551.00,0.0229
550.00,0.0225
549.00,0.0219
548.00,0.0212
547.00,0.0205
546.00,0.0198
545.00,0.0191
544.00,0.0185
543.00,0.0181
542.00,0.0177
541.00,0.0173
540.00,0.0170
539.00,0.0167
538.00,0.0164
537.00,0.0160
536.00,0.0158
535.00,0.0157
534.00,0.0156
533.00,0.0156
532.00,0.0155
531.00,0.0157
530.00,0.0160
529.00,0.0165
528.00,0.0173
527.00,0.0189
526.00,0.0218
525.00,0.0271
524.00,0.0359
523.00,0.0490
522.00,0.0659
521.00,0.0844
520.00,0.1009
519.00,0.1113
518.00,0.1124
517.00,0.1040
516.00,0.0892
515.00,0.0730
514.00,0.0591
513.00,0.0488
512.00,0.0418
511.00,0.0376
510.00,0.0359
509.00,0.0375
508.00,0.0433
507.00,0.0547
506.00,0.0711
505.00,0.0892
504.00,0.1029
503.00,0.1069
502.00,0.1002
501.00,0.0870
500.00,0.0731
499.00,0.0614
498.00,0.0527
497.00,0.0464
496.00,0.0419
495.00,0.0388
494.00,0.0367
493.00,0.0358
492.00,0.0361
491.00,0.0376
490.00,0.0409
489.00,0.0468
488.00,0.0560
487.00,0.0687
486.00,0.0847
485.00,0.1042
484.00,0.1271
483.00,0.1509
482.00,0.1695
481.00,0.1763
480.00,0.1680
479.00,0.1473
478.00,0.1216
477.00,0.0980
476.00,0.0799
475.00,0.0671
474.00,0.0584
473.00,0.0527
472.00,0.0490
471.00,0.0470
470.00,0.0468
469.00,0.0482
468.00,0.0490
467.00,0.0467
466.00,0.0416
465.00,0.0378
464.00,0.0387
463.00,0.0428
462.00,0.0455
461.00,0.0445
460.00,0.0411
459.00,0.0380
458.00,0.0364
457.00,0.0358
456.00,0.0359
455.00,0.0366
454.00,0.0378
453.00,0.0394
452.00,0.0424
451.00,0.0471
450.00,0.0538
449.00,0.0627
448.00,0.0740
447.00,0.0866
446.00,0.0982
445.00,0.1060
444.00,0.1088
443.00,0.1063
442.00,0.0995
441.00,0.0907
440.00,0.0824
439.00,0.0759
438.00,0.0711
437.00,0.0682
436.00,0.0673
435.00,0.0685
434.00,0.0715
433.00,0.0761
432.00,0.0823
431.00,0.0902
430.00,0.0993
429.00,0.1088
428.00,0.1184
427.00,0.1270
426.00,0.1333
425.00,0.1366
424.00,0.1367
423.00,0.1334
422.00,0.1270
421.00,0.1185
420.00,0.1084
419.00,0.0971
418.00,0.0866
417.00,0.0790
416.00,0.0744
415.00,0.0710
414.00,0.0672
413.00,0.0627
412.00,0.0580
411.00,0.0539
410.00,0.0507
409.00,0.0482
408.00,0.0467
407.00,0.0458
406.00,0.0449
405.00,0.0440
404.00,0.0435
403.00,0.0438
402.00,0.0448
401.00,0.0464
400.00,0.0486
