Created as New Dataset,Sample 747 By YargerLab Date Friday, March 20 2026
cm-1,A
4000.00,0.0113
3999.00,0.0113
3998.00,0.0113
3997.00,0.0112
3996.00,0.0112
3995.00,0.0112
3994.00,0.0113
3993.00,0.0113
3992.00,0.0113
3991.00,0.0113
3990.00,0.0113
3989.00,0.0113
3988.00,0.0113
3987.00,0.0113
3986.00,0.0113
3985.00,0.0112
3984.00,0.0112
3983.00,0.0112
3982.00,0.0113
3981.00,0.0113
3980.00,0.0113
3979.00,0.0113
3978.00,0.0113
3977.00,0.0113
3976.00,0.0113
3975.00,0.0113
3974.00,0.0113
3973.00,0.0113
3972.00,0.0113
3971.00,0.0113
3970.00,0.0113
3969.00,0.0112
3968.00,0.0112
3967.00,0.0112
3966.00,0.0112
3965.00,0.0112
3964.00,0.0112
3963.00,0.0112
3962.00,0.0112
3961.00,0.0112
3960.00,0.0112
3959.00,0.0112
3958.00,0.0113
3957.00,0.0113
3956.00,0.0113
3955.00,0.0112
3954.00,0.0112
3953.00,0.0112
3952.00,0.0112
3951.00,0.0112
3950.00,0.0112
3949.00,0.0112
3948.00,0.0112
3947.00,0.0112
3946.00,0.0112
3945.00,0.0113
3944.00,0.0113
3943.00,0.0112
3942.00,0.0112
3941.00,0.0112
3940.00,0.0112
3939.00,0.0112
3938.00,0.0112
3937.00,0.0112
3936.00,0.0111
3935.00,0.0111
3934.00,0.0112
3933.00,0.0112
3932.00,0.0112
3931.00,0.0112
3930.00,0.0112
3929.00,0.0112
3928.00,0.0112
3927.00,0.0112
3926.00,0.0112
3925.00,0.0112
3924.00,0.0112
3923.00,0.0111
3922.00,0.0112
3921.00,0.0112
3920.00,0.0112
3919.00,0.0112
3918.00,0.0112
3917.00,0.0112
3916.00,0.0111
3915.00,0.0111
3914.00,0.0111
3913.00,0.0111
3912.00,0.0111
3911.00,0.0111
3910.00,0.0111
3909.00,0.0111
3908.00,0.0111
3907.00,0.0111
3906.00,0.0112
3905.00,0.0112
3904.00,0.0112
3903.00,0.0112
3902.00,0.0113
3901.00,0.0113
3900.00,0.0113
3899.00,0.0113
3898.00,0.0113
3897.00,0.0112
3896.00,0.0112
3895.00,0.0111
3894.00,0.0111
3893.00,0.0111
3892.00,0.0111
3891.00,0.0111
3890.00,0.0111
3889.00,0.0111
3888.00,0.0111
3887.00,0.0112
3886.00,0.0111
3885.00,0.0111
3884.00,0.0111
3883.00,0.0111
3882.00,0.0111
3881.00,0.0111
3880.00,0.0111
3879.00,0.0111
3878.00,0.0110
3877.00,0.0110
3876.00,0.0110
3875.00,0.0110
3874.00,0.0110
3873.00,0.0110
3872.00,0.0110
3871.00,0.0111
3870.00,0.0111
3869.00,0.0111
3868.00,0.0111
3867.00,0.0111
3866.00,0.0111
3865.00,0.0111
3864.00,0.0111
3863.00,0.0110
3862.00,0.0110
3861.00,0.0110
3860.00,0.0110
3859.00,0.0110
3858.00,0.0110
3857.00,0.0111
3856.00,0.0111
3855.00,0.0112
3854.00,0.0112
3853.00,0.0112
3852.00,0.0112
3851.00,0.0112
3850.00,0.0112
3849.00,0.0112
3848.00,0.0111
3847.00,0.0110
3846.00,0.0110
3845.00,0.0109
3844.00,0.0109
3843.00,0.0109
3842.00,0.0109
3841.00,0.0109
3840.00,0.0109
3839.00,0.0110
3838.00,0.0110
3837.00,0.0110
3836.00,0.0110
3835.00,0.0110
3834.00,0.0110
3833.00,0.0110
3832.00,0.0110
3831.00,0.0109
3830.00,0.0109
3829.00,0.0109
3828.00,0.0109
3827.00,0.0108
3826.00,0.0108
3825.00,0.0108
3824.00,0.0108
3823.00,0.0109
3822.00,0.0109
3821.00,0.0109
3820.00,0.0109
3819.00,0.0109
3818.00,0.0110
3817.00,0.0110
3816.00,0.0110
3815.00,0.0109
3814.00,0.0109
3813.00,0.0109
3812.00,0.0109
3811.00,0.0108
3810.00,0.0108
3809.00,0.0108
3808.00,0.0108
3807.00,0.0108
3806.00,0.0108
3805.00,0.0108
3804.00,0.0108
3803.00,0.0109
3802.00,0.0108
3801.00,0.0108
3800.00,0.0108
3799.00,0.0108
3798.00,0.0108
3797.00,0.0109
3796.00,0.0108
3795.00,0.0108
3794.00,0.0107
3793.00,0.0107
3792.00,0.0107
3791.00,0.0107
3790.00,0.0107
3789.00,0.0107
3788.00,0.0107
3787.00,0.0107
3786.00,0.0107
3785.00,0.0107
3784.00,0.0107
3783.00,0.0107
3782.00,0.0107
3781.00,0.0107
3780.00,0.0107
3779.00,0.0107
3778.00,0.0107
3777.00,0.0107
3776.00,0.0107
3775.00,0.0107
3774.00,0.0107
3773.00,0.0107
3772.00,0.0107
3771.00,0.0107
3770.00,0.0106
3769.00,0.0106
3768.00,0.0107
3767.00,0.0107
3766.00,0.0107
3765.00,0.0107
3764.00,0.0107
3763.00,0.0107
3762.00,0.0107
3761.00,0.0107
3760.00,0.0106
3759.00,0.0106
3758.00,0.0106
3757.00,0.0106
3756.00,0.0107
3755.00,0.0107
3754.00,0.0107
3753.00,0.0107
3752.00,0.0107
3751.00,0.0107
3750.00,0.0108
3749.00,0.0108
3748.00,0.0108
3747.00,0.0108
3746.00,0.0109
3745.00,0.0109
3744.00,0.0109
3743.00,0.0108
3742.00,0.0108
3741.00,0.0108
3740.00,0.0107
3739.00,0.0107
3738.00,0.0106
3737.00,0.0106
3736.00,0.0106
3735.00,0.0106
3734.00,0.0106
3733.00,0.0107
3732.00,0.0106
3731.00,0.0106
3730.00,0.0106
3729.00,0.0106
3728.00,0.0106
3727.00,0.0105
3726.00,0.0105
3725.00,0.0105
3724.00,0.0105
3723.00,0.0105
3722.00,0.0105
3721.00,0.0105
3720.00,0.0105
3719.00,0.0104
3718.00,0.0104
3717.00,0.0104
3716.00,0.0104
3715.00,0.0104
3714.00,0.0104
3713.00,0.0104
3712.00,0.0104
3711.00,0.0104
3710.00,0.0104
3709.00,0.0105
3708.00,0.0105
3707.00,0.0105
3706.00,0.0104
3705.00,0.0104
3704.00,0.0104
3703.00,0.0104
3702.00,0.0104
3701.00,0.0103
3700.00,0.0103
3699.00,0.0103
3698.00,0.0103
3697.00,0.0103
3696.00,0.0103
3695.00,0.0103
3694.00,0.0103
3693.00,0.0103
3692.00,0.0103
3691.00,0.0103
3690.00,0.0103
3689.00,0.0104
3688.00,0.0104
3687.00,0.0104
3686.00,0.0104
3685.00,0.0104
3684.00,0.0104
3683.00,0.0103
3682.00,0.0102
3681.00,0.0102
3680.00,0.0102
3679.00,0.0102
3678.00,0.0102
3677.00,0.0102
3676.00,0.0103
3675.00,0.0103
3674.00,0.0103
3673.00,0.0104
3672.00,0.0104
3671.00,0.0105
3670.00,0.0104
3669.00,0.0104
3668.00,0.0104
3667.00,0.0104
3666.00,0.0103
3665.00,0.0103
3664.00,0.0102
3663.00,0.0102
3662.00,0.0102
3661.00,0.0102
3660.00,0.0102
3659.00,0.0102
3658.00,0.0102
3657.00,0.0102
3656.00,0.0102
3655.00,0.0102
3654.00,0.0102
3653.00,0.0102
3652.00,0.0102
3651.00,0.0102
3650.00,0.0102
3649.00,0.0102
3648.00,0.0103
3647.00,0.0104
3646.00,0.0104
3645.00,0.0103
3644.00,0.0103
3643.00,0.0102
3642.00,0.0102
3641.00,0.0102
3640.00,0.0101
3639.00,0.0101
3638.00,0.0101
3637.00,0.0101
3636.00,0.0101
3635.00,0.0101
3634.00,0.0101
3633.00,0.0101
3632.00,0.0101
3631.00,0.0102
3630.00,0.0102
3629.00,0.0102
3628.00,0.0102
3627.00,0.0102
3626.00,0.0102
3625.00,0.0102
3624.00,0.0102
3623.00,0.0101
3622.00,0.0101
3621.00,0.0101
3620.00,0.0101
3619.00,0.0101
3618.00,0.0101
3617.00,0.0102
3616.00,0.0102
3615.00,0.0102
3614.00,0.0102
3613.00,0.0102
3612.00,0.0102
3611.00,0.0102
3610.00,0.0102
3609.00,0.0102
3608.00,0.0102
3607.00,0.0102
3606.00,0.0102
3605.00,0.0101
3604.00,0.0101
3603.00,0.0100
3602.00,0.0100
3601.00,0.0100
3600.00,0.0099
3599.00,0.0099
3598.00,0.0100
3597.00,0.0100
3596.00,0.0100
3595.00,0.0100
3594.00,0.0100
3593.00,0.0100
3592.00,0.0099
3591.00,0.0099
3590.00,0.0099
3589.00,0.0100
3588.00,0.0100
3587.00,0.0101
3586.00,0.0101
3585.00,0.0101
3584.00,0.0101
3583.00,0.0100
3582.00,0.0100
3581.00,0.0100
3580.00,0.0099
3579.00,0.0099
3578.00,0.0099
3577.00,0.0100
3576.00,0.0099
3575.00,0.0099
3574.00,0.0099
3573.00,0.0099
3572.00,0.0099
3571.00,0.0099
3570.00,0.0100
3569.00,0.0100
3568.00,0.0100
3567.00,0.0101
3566.00,0.0101
3565.00,0.0101
3564.00,0.0101
3563.00,0.0101
3562.00,0.0100
3561.00,0.0100
3560.00,0.0100
3559.00,0.0100
3558.00,0.0100
3557.00,0.0100
3556.00,0.0100
3555.00,0.0100
3554.00,0.0100
3553.00,0.0099
3552.00,0.0099
3551.00,0.0099
3550.00,0.0099
3549.00,0.0099
3548.00,0.0099
3547.00,0.0099
3546.00,0.0099
3545.00,0.0099
3544.00,0.0099
3543.00,0.0099
3542.00,0.0099
3541.00,0.0099
3540.00,0.0099
3539.00,0.0099
3538.00,0.0099
3537.00,0.0099
3536.00,0.0099
3535.00,0.0099
3534.00,0.0099
3533.00,0.0099
3532.00,0.0099
3531.00,0.0099
3530.00,0.0099
3529.00,0.0099
3528.00,0.0099
3527.00,0.0099
3526.00,0.0099
3525.00,0.0099
3524.00,0.0098
3523.00,0.0098
3522.00,0.0098
3521.00,0.0098
3520.00,0.0098
3519.00,0.0098
3518.00,0.0098
3517.00,0.0098
3516.00,0.0098
3515.00,0.0098
3514.00,0.0098
3513.00,0.0098
3512.00,0.0098
3511.00,0.0098
3510.00,0.0098
3509.00,0.0098
3508.00,0.0098
3507.00,0.0098
3506.00,0.0098
3505.00,0.0098
3504.00,0.0098
3503.00,0.0098
3502.00,0.0098
3501.00,0.0098
3500.00,0.0098
3499.00,0.0098
3498.00,0.0098
3497.00,0.0098
3496.00,0.0097
3495.00,0.0097
3494.00,0.0097
3493.00,0.0097
3492.00,0.0097
3491.00,0.0097
3490.00,0.0097
3489.00,0.0097
3488.00,0.0097
3487.00,0.0097
3486.00,0.0097
3485.00,0.0097
3484.00,0.0097
3483.00,0.0097
3482.00,0.0097
3481.00,0.0097
3480.00,0.0097
3479.00,0.0097
3478.00,0.0097
3477.00,0.0097
3476.00,0.0097
3475.00,0.0097
3474.00,0.0097
3473.00,0.0097
3472.00,0.0097
3471.00,0.0097
3470.00,0.0097
3469.00,0.0096
3468.00,0.0096
3467.00,0.0096
3466.00,0.0096
3465.00,0.0097
3464.00,0.0097
3463.00,0.0097
3462.00,0.0097
3461.00,0.0097
3460.00,0.0097
3459.00,0.0097
3458.00,0.0097
3457.00,0.0097
3456.00,0.0097
3455.00,0.0097
3454.00,0.0097
3453.00,0.0097
3452.00,0.0097
3451.00,0.0097
3450.00,0.0097
3449.00,0.0097
3448.00,0.0098
3447.00,0.0098
3446.00,0.0098
3445.00,0.0098
3444.00,0.0098
3443.00,0.0098
3442.00,0.0098
3441.00,0.0098
3440.00,0.0097
3439.00,0.0097
3438.00,0.0097
3437.00,0.0097
3436.00,0.0097
3435.00,0.0097
3434.00,0.0097
3433.00,0.0097
3432.00,0.0097
3431.00,0.0097
3430.00,0.0098
3429.00,0.0098
3428.00,0.0098
3427.00,0.0099
3426.00,0.0099
3425.00,0.0099
3424.00,0.0099
3423.00,0.0100
3422.00,0.0100
3421.00,0.0100
3420.00,0.0101
3419.00,0.0101
3418.00,0.0101
3417.00,0.0101
3416.00,0.0101
3415.00,0.0101
3414.00,0.0101
3413.00,0.0101
3412.00,0.0101
3411.00,0.0101
3410.00,0.0102
3409.00,0.0102
3408.00,0.0103
3407.00,0.0103
3406.00,0.0103
3405.00,0.0103
3404.00,0.0103
3403.00,0.0102
3402.00,0.0101
3401.00,0.0101
3400.00,0.0102
3399.00,0.0103
3398.00,0.0104
3397.00,0.0105
3396.00,0.0105
3395.00,0.0105
3394.00,0.0104
3393.00,0.0104
3392.00,0.0104
3391.00,0.0105
3390.00,0.0105
3389.00,0.0106
3388.00,0.0107
3387.00,0.0108
3386.00,0.0108
3385.00,0.0108
3384.00,0.0108
3383.00,0.0108
3382.00,0.0107
3381.00,0.0107
3380.00,0.0107
3379.00,0.0107
3378.00,0.0107
3377.00,0.0107
3376.00,0.0107
3375.00,0.0107
3374.00,0.0107
3373.00,0.0107
3372.00,0.0106
3371.00,0.0106
3370.00,0.0105
3369.00,0.0105
3368.00,0.0106
3367.00,0.0106
3366.00,0.0107
3365.00,0.0108
3364.00,0.0108
3363.00,0.0109
3362.00,0.0109
3361.00,0.0110
3360.00,0.0110
3359.00,0.0111
3358.00,0.0111
3357.00,0.0112
3356.00,0.0113
3355.00,0.0114
3354.00,0.0114
3353.00,0.0115
3352.00,0.0116
3351.00,0.0117
3350.00,0.0118
3349.00,0.0120
3348.00,0.0121
3347.00,0.0123
3346.00,0.0125
3345.00,0.0126
3344.00,0.0128
3343.00,0.0130
3342.00,0.0132
3341.00,0.0135
3340.00,0.0137
3339.00,0.0141
3338.00,0.0144
3337.00,0.0149
3336.00,0.0153
3335.00,0.0158
3334.00,0.0163
3333.00,0.0168
3332.00,0.0173
3331.00,0.0178
3330.00,0.0183
3329.00,0.0188
3328.00,0.0192
3327.00,0.0195
3326.00,0.0199
3325.00,0.0201
3324.00,0.0204
3323.00,0.0205
3322.00,0.0206
3321.00,0.0205
3320.00,0.0204
3319.00,0.0203
3318.00,0.0200
3317.00,0.0198
3316.00,0.0195
3315.00,0.0192
3314.00,0.0189
3313.00,0.0186
3312.00,0.0183
3311.00,0.0179
3310.00,0.0176
3309.00,0.0172
3308.00,0.0169
3307.00,0.0167
3306.00,0.0165
3305.00,0.0165
3304.00,0.0166
3303.00,0.0166
3302.00,0.0167
3301.00,0.0168
3300.00,0.0167
3299.00,0.0167
3298.00,0.0166
3297.00,0.0164
3296.00,0.0164
3295.00,0.0163
3294.00,0.0163
3293.00,0.0163
3292.00,0.0163
3291.00,0.0164
3290.00,0.0164
3289.00,0.0165
3288.00,0.0164
3287.00,0.0164
3286.00,0.0163
3285.00,0.0162
3284.00,0.0161
3283.00,0.0160
3282.00,0.0160
3281.00,0.0159
3280.00,0.0158
3279.00,0.0158
3278.00,0.0157
3277.00,0.0156
3276.00,0.0155
3275.00,0.0154
3274.00,0.0153
3273.00,0.0153
3272.00,0.0153
3271.00,0.0153
3270.00,0.0153
3269.00,0.0155
3268.00,0.0156
3267.00,0.0157
3266.00,0.0158
3265.00,0.0158
3264.00,0.0159
3263.00,0.0159
3262.00,0.0160
3261.00,0.0160
3260.00,0.0160
3259.00,0.0160
3258.00,0.0160
3257.00,0.0160
3256.00,0.0160
3255.00,0.0160
3254.00,0.0160
3253.00,0.0160
3252.00,0.0160
3251.00,0.0159
3250.00,0.0159
3249.00,0.0158
3248.00,0.0158
3247.00,0.0158
3246.00,0.0158
3245.00,0.0158
3244.00,0.0159
3243.00,0.0159
3242.00,0.0159
3241.00,0.0159
3240.00,0.0159
3239.00,0.0160
3238.00,0.0160
3237.00,0.0160
3236.00,0.0159
3235.00,0.0159
3234.00,0.0159
3233.00,0.0160
3232.00,0.0161
3231.00,0.0162
3230.00,0.0163
3229.00,0.0164
3228.00,0.0164
3227.00,0.0165
3226.00,0.0165
3225.00,0.0166
3224.00,0.0167
3223.00,0.0168
3222.00,0.0169
3221.00,0.0169
3220.00,0.0170
3219.00,0.0171
3218.00,0.0172
3217.00,0.0173
3216.00,0.0174
3215.00,0.0175
3214.00,0.0176
3213.00,0.0178
3212.00,0.0179
3211.00,0.0180
3210.00,0.0181
3209.00,0.0182
3208.00,0.0183
3207.00,0.0184
3206.00,0.0185
3205.00,0.0186
3204.00,0.0186
3203.00,0.0187
3202.00,0.0188
3201.00,0.0188
3200.00,0.0189
3199.00,0.0190
3198.00,0.0190
3197.00,0.0191
3196.00,0.0191
3195.00,0.0192
3194.00,0.0192
3193.00,0.0192
3192.00,0.0192
3191.00,0.0192
3190.00,0.0193
3189.00,0.0193
3188.00,0.0193
3187.00,0.0194
3186.00,0.0194
3185.00,0.0195
3184.00,0.0196
3183.00,0.0196
3182.00,0.0197
3181.00,0.0197
3180.00,0.0198
3179.00,0.0198
3178.00,0.0199
3177.00,0.0200
3176.00,0.0201
3175.00,0.0202
3174.00,0.0202
3173.00,0.0203
3172.00,0.0205
3171.00,0.0206
3170.00,0.0207
3169.00,0.0208
3168.00,0.0209
3167.00,0.0210
3166.00,0.0212
3165.00,0.0213
3164.00,0.0213
3163.00,0.0214
3162.00,0.0215
3161.00,0.0215
3160.00,0.0215
3159.00,0.0215
3158.00,0.0214
3157.00,0.0214
3156.00,0.0214
3155.00,0.0213
3154.00,0.0212
3153.00,0.0212
3152.00,0.0212
3151.00,0.0212
3150.00,0.0212
3149.00,0.0212
3148.00,0.0212
3147.00,0.0212
3146.00,0.0212
3145.00,0.0212
3144.00,0.0211
3143.00,0.0211
3142.00,0.0211
3141.00,0.0210
3140.00,0.0210
3139.00,0.0210
3138.00,0.0211
3137.00,0.0212
3136.00,0.0212
3135.00,0.0213
3134.00,0.0215
3133.00,0.0216
3132.00,0.0218
3131.00,0.0220
3130.00,0.0222
3129.00,0.0225
3128.00,0.0229
3127.00,0.0233
3126.00,0.0238
3125.00,0.0243
3124.00,0.0248
3123.00,0.0253
3122.00,0.0258
3121.00,0.0263
3120.00,0.0268
3119.00,0.0273
3118.00,0.0278
3117.00,0.0283
3116.00,0.0287
3115.00,0.0291
3114.00,0.0294
3113.00,0.0296
3112.00,0.0297
3111.00,0.0297
3110.00,0.0296
3109.00,0.0294
3108.00,0.0292
3107.00,0.0289
3106.00,0.0286
3105.00,0.0283
3104.00,0.0278
3103.00,0.0274
3102.00,0.0269
3101.00,0.0265
3100.00,0.0261
3099.00,0.0258
3098.00,0.0256
3097.00,0.0253
3096.00,0.0251
3095.00,0.0248
3094.00,0.0246
3093.00,0.0243
3092.00,0.0240
3091.00,0.0237
3090.00,0.0235
3089.00,0.0232
3088.00,0.0229
3087.00,0.0226
3086.00,0.0223
3085.00,0.0221
3084.00,0.0218
3083.00,0.0216
3082.00,0.0214
3081.00,0.0211
3080.00,0.0209
3079.00,0.0207
3078.00,0.0205
3077.00,0.0204
3076.00,0.0203
3075.00,0.0202
3074.00,0.0201
3073.00,0.0200
3072.00,0.0199
3071.00,0.0198
3070.00,0.0197
3069.00,0.0196
3068.00,0.0196
3067.00,0.0195
3066.00,0.0195
3065.00,0.0194
3064.00,0.0194
3063.00,0.0193
3062.00,0.0193
3061.00,0.0192
3060.00,0.0192
3059.00,0.0191
3058.00,0.0190
3057.00,0.0189
3056.00,0.0189
3055.00,0.0188
3054.00,0.0187
3053.00,0.0187
3052.00,0.0186
3051.00,0.0186
3050.00,0.0185
3049.00,0.0185
3048.00,0.0184
3047.00,0.0184
3046.00,0.0184
3045.00,0.0184
3044.00,0.0183
3043.00,0.0184
3042.00,0.0184
3041.00,0.0185
3040.00,0.0186
3039.00,0.0187
3038.00,0.0188
3037.00,0.0188
3036.00,0.0188
3035.00,0.0188
3034.00,0.0188
3033.00,0.0187
3032.00,0.0187
3031.00,0.0187
3030.00,0.0186
3029.00,0.0186
3028.00,0.0185
3027.00,0.0184
3026.00,0.0183
3025.00,0.0182
3024.00,0.0182
3023.00,0.0181
3022.00,0.0181
3021.00,0.0180
3020.00,0.0180
3019.00,0.0179
3018.00,0.0179
3017.00,0.0178
3016.00,0.0178
3015.00,0.0177
3014.00,0.0177
3013.00,0.0177
3012.00,0.0178
3011.00,0.0178
3010.00,0.0179
3009.00,0.0179
3008.00,0.0179
3007.00,0.0179
3006.00,0.0179
3005.00,0.0179
3004.00,0.0179
3003.00,0.0179
3002.00,0.0179
3001.00,0.0178
3000.00,0.0178
2999.00,0.0177
2998.00,0.0177
2997.00,0.0176
2996.00,0.0175
2995.00,0.0175
2994.00,0.0174
2993.00,0.0174
2992.00,0.0173
2991.00,0.0173
2990.00,0.0173
2989.00,0.0174
2988.00,0.0173
2987.00,0.0173
2986.00,0.0173
2985.00,0.0173
2984.00,0.0173
2983.00,0.0173
2982.00,0.0173
2981.00,0.0173
2980.00,0.0174
2979.00,0.0175
2978.00,0.0176
2977.00,0.0177
2976.00,0.0178
2975.00,0.0180
2974.00,0.0181
2973.00,0.0184
2972.00,0.0186
2971.00,0.0189
2970.00,0.0191
2969.00,0.0194
2968.00,0.0197
2967.00,0.0200
2966.00,0.0203
2965.00,0.0206
2964.00,0.0209
2963.00,0.0212
2962.00,0.0215
2961.00,0.0217
2960.00,0.0220
2959.00,0.0221
2958.00,0.0222
2957.00,0.0223
2956.00,0.0223
2955.00,0.0223
2954.00,0.0223
2953.00,0.0222
2952.00,0.0220
2951.00,0.0219
2950.00,0.0217
2949.00,0.0214
2948.00,0.0211
2947.00,0.0208
2946.00,0.0205
2945.00,0.0203
2944.00,0.0200
2943.00,0.0198
2942.00,0.0195
2941.00,0.0193
2940.00,0.0191
2939.00,0.0189
2938.00,0.0187
2937.00,0.0185
2936.00,0.0183
2935.00,0.0181
2934.00,0.0180
2933.00,0.0178
2932.00,0.0177
2931.00,0.0175
2930.00,0.0174
2929.00,0.0172
2928.00,0.0171
2927.00,0.0170
2926.00,0.0169
2925.00,0.0168
2924.00,0.0167
2923.00,0.0165
2922.00,0.0164
2921.00,0.0163
2920.00,0.0161
2919.00,0.0160
2918.00,0.0159
2917.00,0.0158
2916.00,0.0157
2915.00,0.0156
2914.00,0.0156
2913.00,0.0156
2912.00,0.0155
2911.00,0.0155
2910.00,0.0155
2909.00,0.0155
2908.00,0.0155
2907.00,0.0155
2906.00,0.0154
2905.00,0.0154
2904.00,0.0154
2903.00,0.0154
2902.00,0.0154
2901.00,0.0154
2900.00,0.0154
2899.00,0.0154
2898.00,0.0154
2897.00,0.0154
2896.00,0.0154
2895.00,0.0155
2894.00,0.0156
2893.00,0.0157
2892.00,0.0157
2891.00,0.0158
2890.00,0.0158
2889.00,0.0159
2888.00,0.0159
2887.00,0.0160
2886.00,0.0160
2885.00,0.0160
2884.00,0.0160
2883.00,0.0160
2882.00,0.0160
2881.00,0.0160
2880.00,0.0159
2879.00,0.0158
2878.00,0.0158
2877.00,0.0156
2876.00,0.0155
2875.00,0.0153
2874.00,0.0152
2873.00,0.0151
2872.00,0.0150
2871.00,0.0149
2870.00,0.0148
2869.00,0.0147
2868.00,0.0146
2867.00,0.0145
2866.00,0.0144
2865.00,0.0143
2864.00,0.0142
2863.00,0.0141
2862.00,0.0140
2861.00,0.0139
2860.00,0.0138
2859.00,0.0137
2858.00,0.0136
2857.00,0.0135
2856.00,0.0135
2855.00,0.0134
2854.00,0.0134
2853.00,0.0133
2852.00,0.0132
2851.00,0.0132
2850.00,0.0131
2849.00,0.0131
2848.00,0.0131
2847.00,0.0131
2846.00,0.0131
2845.00,0.0132
2844.00,0.0132
2843.00,0.0132
2842.00,0.0131
2841.00,0.0131
2840.00,0.0131
2839.00,0.0131
2838.00,0.0131
2837.00,0.0131
2836.00,0.0131
2835.00,0.0131
2834.00,0.0131
2833.00,0.0131
2832.00,0.0131
2831.00,0.0131
2830.00,0.0130
2829.00,0.0130
2828.00,0.0129
2827.00,0.0129
2826.00,0.0129
2825.00,0.0128
2824.00,0.0128
2823.00,0.0128
2822.00,0.0128
2821.00,0.0127
2820.00,0.0127
2819.00,0.0127
2818.00,0.0127
2817.00,0.0127
2816.00,0.0127
2815.00,0.0128
2814.00,0.0128
2813.00,0.0128
2812.00,0.0128
2811.00,0.0128
2810.00,0.0128
2809.00,0.0129
2808.00,0.0129
2807.00,0.0130
2806.00,0.0130
2805.00,0.0131
2804.00,0.0131
2803.00,0.0132
2802.00,0.0132
2801.00,0.0132
2800.00,0.0132
2799.00,0.0133
2798.00,0.0133
2797.00,0.0133
2796.00,0.0134
2795.00,0.0134
2794.00,0.0134
2793.00,0.0133
2792.00,0.0133
2791.00,0.0133
2790.00,0.0133
2789.00,0.0133
2788.00,0.0132
2787.00,0.0132
2786.00,0.0131
2785.00,0.0131
2784.00,0.0130
2783.00,0.0129
2782.00,0.0129
2781.00,0.0128
2780.00,0.0128
2779.00,0.0127
2778.00,0.0127
2777.00,0.0126
2776.00,0.0126
2775.00,0.0125
2774.00,0.0124
2773.00,0.0124
2772.00,0.0124
2771.00,0.0123
2770.00,0.0123
2769.00,0.0123
2768.00,0.0122
2767.00,0.0122
2766.00,0.0121
2765.00,0.0121
2764.00,0.0120
2763.00,0.0120
2762.00,0.0120
2761.00,0.0119
2760.00,0.0119
2759.00,0.0119
2758.00,0.0119
2757.00,0.0118
2756.00,0.0118
2755.00,0.0118
2754.00,0.0118
2753.00,0.0118
2752.00,0.0118
2751.00,0.0118
2750.00,0.0117
2749.00,0.0117
2748.00,0.0117
2747.00,0.0117
2746.00,0.0117
2745.00,0.0117
2744.00,0.0118
2743.00,0.0118
2742.00,0.0117
2741.00,0.0117
2740.00,0.0117
2739.00,0.0118
2738.00,0.0118
2737.00,0.0118
2736.00,0.0118
2735.00,0.0118
2734.00,0.0119
2733.00,0.0119
2732.00,0.0119
2731.00,0.0119
2730.00,0.0120
2729.00,0.0120
2728.00,0.0120
2727.00,0.0120
2726.00,0.0120
2725.00,0.0120
2724.00,0.0121
2723.00,0.0121
2722.00,0.0121
2721.00,0.0122
2720.00,0.0122
2719.00,0.0122
2718.00,0.0122
2717.00,0.0122
2716.00,0.0122
2715.00,0.0122
2714.00,0.0122
2713.00,0.0122
2712.00,0.0121
2711.00,0.0121
2710.00,0.0121
2709.00,0.0120
2708.00,0.0120
2707.00,0.0119
2706.00,0.0119
2705.00,0.0119
2704.00,0.0119
2703.00,0.0119
2702.00,0.0118
2701.00,0.0118
2700.00,0.0118
2699.00,0.0117
2698.00,0.0117
2697.00,0.0117
2696.00,0.0117
2695.00,0.0117
2694.00,0.0117
2693.00,0.0116
2692.00,0.0116
2691.00,0.0116
2690.00,0.0116
2689.00,0.0116
2688.00,0.0116
2687.00,0.0116
2686.00,0.0116
2685.00,0.0117
2684.00,0.0117
2683.00,0.0117
2682.00,0.0117
2681.00,0.0117
2680.00,0.0117
2679.00,0.0117
2678.00,0.0118
2677.00,0.0118
2676.00,0.0118
2675.00,0.0118
2674.00,0.0119
2673.00,0.0119
2672.00,0.0119
2671.00,0.0120
2670.00,0.0120
2669.00,0.0120
2668.00,0.0120
2667.00,0.0120
2666.00,0.0120
2665.00,0.0120
2664.00,0.0120
2663.00,0.0120
2662.00,0.0119
2661.00,0.0118
2660.00,0.0118
2659.00,0.0117
2658.00,0.0117
2657.00,0.0116
2656.00,0.0116
2655.00,0.0115
2654.00,0.0115
2653.00,0.0114
2652.00,0.0114
2651.00,0.0113
2650.00,0.0112
2649.00,0.0112
2648.00,0.0111
2647.00,0.0111
2646.00,0.0110
2645.00,0.0110
2644.00,0.0110
2643.00,0.0110
2642.00,0.0109
2641.00,0.0109
2640.00,0.0109
2639.00,0.0108
2638.00,0.0108
2637.00,0.0108
2636.00,0.0108
2635.00,0.0108
2634.00,0.0108
2633.00,0.0108
2632.00,0.0108
2631.00,0.0108
2630.00,0.0108
2629.00,0.0108
2628.00,0.0108
2627.00,0.0108
2626.00,0.0108
2625.00,0.0108
2624.00,0.0108
2623.00,0.0108
2622.00,0.0108
2621.00,0.0108
2620.00,0.0108
2619.00,0.0109
2618.00,0.0109
2617.00,0.0109
2616.00,0.0109
2615.00,0.0110
2614.00,0.0110
2613.00,0.0109
2612.00,0.0109
2611.00,0.0109
2610.00,0.0109
2609.00,0.0110
2608.00,0.0110
2607.00,0.0110
2606.00,0.0110
2605.00,0.0110
2604.00,0.0111
2603.00,0.0111
2602.00,0.0111
2601.00,0.0111
2600.00,0.0111
2599.00,0.0111
2598.00,0.0112
2597.00,0.0112
2596.00,0.0112
2595.00,0.0112
2594.00,0.0113
2593.00,0.0113
2592.00,0.0113
2591.00,0.0113
2590.00,0.0113
2589.00,0.0113
2588.00,0.0114
2587.00,0.0114
2586.00,0.0114
2585.00,0.0115
2584.00,0.0115
2583.00,0.0115
2582.00,0.0115
2581.00,0.0115
2580.00,0.0115
2579.00,0.0115
2578.00,0.0115
2577.00,0.0115
2576.00,0.0116
2575.00,0.0116
2574.00,0.0115
2573.00,0.0115
2572.00,0.0115
2571.00,0.0115
2570.00,0.0114
2569.00,0.0114
2568.00,0.0114
2567.00,0.0114
2566.00,0.0113
2565.00,0.0113
2564.00,0.0112
2563.00,0.0112
2562.00,0.0111
2561.00,0.0110
2560.00,0.0110
2559.00,0.0109
2558.00,0.0108
2557.00,0.0108
2556.00,0.0107
2555.00,0.0107
2554.00,0.0106
2553.00,0.0106
2552.00,0.0105
2551.00,0.0105
2550.00,0.0104
2549.00,0.0104
2548.00,0.0104
2547.00,0.0103
2546.00,0.0103
2545.00,0.0102
2544.00,0.0102
2543.00,0.0102
2542.00,0.0101
2541.00,0.0101
2540.00,0.0101
2539.00,0.0101
2538.00,0.0100
2537.00,0.0100
2536.00,0.0100
2535.00,0.0100
2534.00,0.0100
2533.00,0.0100
2532.00,0.0100
2531.00,0.0100
2530.00,0.0100
2529.00,0.0100
2528.00,0.0100
2527.00,0.0100
2526.00,0.0099
2525.00,0.0099
2524.00,0.0099
2523.00,0.0099
2522.00,0.0098
2521.00,0.0098
2520.00,0.0098
2519.00,0.0099
2518.00,0.0099
2517.00,0.0099
2516.00,0.0099
2515.00,0.0099
2514.00,0.0099
2513.00,0.0098
2512.00,0.0098
2511.00,0.0098
2510.00,0.0098
2509.00,0.0099
2508.00,0.0099
2507.00,0.0099
2506.00,0.0099
2505.00,0.0099
2504.00,0.0100
2503.00,0.0100
2502.00,0.0100
2501.00,0.0101
2500.00,0.0101
2499.00,0.0102
2498.00,0.0103
2497.00,0.0103
2496.00,0.0103
2495.00,0.0103
2494.00,0.0103
2493.00,0.0103
2492.00,0.0103
2491.00,0.0102
2490.00,0.0102
2489.00,0.0102
2488.00,0.0102
2487.00,0.0102
2486.00,0.0102
2485.00,0.0102
2484.00,0.0102
2483.00,0.0101
2482.00,0.0101
2481.00,0.0101
2480.00,0.0101
2479.00,0.0101
2478.00,0.0101
2477.00,0.0101
2476.00,0.0101
2475.00,0.0101
2474.00,0.0101
2473.00,0.0100
2472.00,0.0100
2471.00,0.0100
2470.00,0.0099
2469.00,0.0099
2468.00,0.0099
2467.00,0.0099
2466.00,0.0099
2465.00,0.0099
2464.00,0.0099
2463.00,0.0099
2462.00,0.0099
2461.00,0.0099
2460.00,0.0099
2459.00,0.0098
2458.00,0.0098
2457.00,0.0098
2456.00,0.0098
2455.00,0.0098
2454.00,0.0098
2453.00,0.0098
2452.00,0.0098
2451.00,0.0097
2450.00,0.0097
2449.00,0.0097
2448.00,0.0097
2447.00,0.0097
2446.00,0.0096
2445.00,0.0096
2444.00,0.0096
2443.00,0.0095
2442.00,0.0094
2441.00,0.0094
2440.00,0.0094
2439.00,0.0094
2438.00,0.0094
2437.00,0.0093
2436.00,0.0093
2435.00,0.0093
2434.00,0.0094
2433.00,0.0094
2432.00,0.0094
2431.00,0.0094
2430.00,0.0094
2429.00,0.0094
2428.00,0.0094
2427.00,0.0094
2426.00,0.0093
2425.00,0.0093
2424.00,0.0093
2423.00,0.0093
2422.00,0.0092
2421.00,0.0092
2420.00,0.0092
2419.00,0.0092
2418.00,0.0092
2417.00,0.0091
2416.00,0.0091
2415.00,0.0091
2414.00,0.0091
2413.00,0.0091
2412.00,0.0091
2411.00,0.0091
2410.00,0.0091
2409.00,0.0090
2408.00,0.0090
2407.00,0.0090
2406.00,0.0090
2405.00,0.0090
2404.00,0.0090
2403.00,0.0090
2402.00,0.0090
2401.00,0.0090
2400.00,0.0091
2399.00,0.0091
2398.00,0.0091
2397.00,0.0091
2396.00,0.0091
2395.00,0.0090
2394.00,0.0090
2393.00,0.0090
2392.00,0.0090
2391.00,0.0089
2390.00,0.0089
2389.00,0.0089
2388.00,0.0089
2387.00,0.0089
2386.00,0.0089
2385.00,0.0089
2384.00,0.0088
2383.00,0.0088
2382.00,0.0088
2381.00,0.0088
2380.00,0.0087
2379.00,0.0087
2378.00,0.0087
2377.00,0.0088
2376.00,0.0088
2375.00,0.0088
2374.00,0.0088
2373.00,0.0088
2372.00,0.0088
2371.00,0.0088
2370.00,0.0088
2369.00,0.0087
2368.00,0.0087
2367.00,0.0087
2366.00,0.0086
2365.00,0.0087
2364.00,0.0087
2363.00,0.0087
2362.00,0.0087
2361.00,0.0087
2360.00,0.0087
2359.00,0.0087
2358.00,0.0087
2357.00,0.0088
2356.00,0.0088
2355.00,0.0089
2354.00,0.0089
2353.00,0.0089
2352.00,0.0089
2351.00,0.0089
2350.00,0.0088
2349.00,0.0088
2348.00,0.0087
2347.00,0.0087
2346.00,0.0087
2345.00,0.0087
2344.00,0.0086
2343.00,0.0085
2342.00,0.0085
2341.00,0.0085
2340.00,0.0085
2339.00,0.0085
2338.00,0.0086
2337.00,0.0086
2336.00,0.0086
2335.00,0.0086
2334.00,0.0086
2333.00,0.0086
2332.00,0.0086
2331.00,0.0086
2330.00,0.0085
2329.00,0.0086
2328.00,0.0086
2327.00,0.0087
2326.00,0.0087
2325.00,0.0086
2324.00,0.0086
2323.00,0.0085
2322.00,0.0085
2321.00,0.0084
2320.00,0.0085
2319.00,0.0084
2318.00,0.0084
2317.00,0.0084
2316.00,0.0084
2315.00,0.0084
2314.00,0.0084
2313.00,0.0084
2312.00,0.0084
2311.00,0.0084
2310.00,0.0084
2309.00,0.0084
2308.00,0.0083
2307.00,0.0083
2306.00,0.0083
2305.00,0.0082
2304.00,0.0083
2303.00,0.0083
2302.00,0.0082
2301.00,0.0082
2300.00,0.0082
2299.00,0.0082
2298.00,0.0081
2297.00,0.0081
2296.00,0.0081
2295.00,0.0081
2294.00,0.0081
2293.00,0.0081
2292.00,0.0081
2291.00,0.0081
2290.00,0.0081
2289.00,0.0081
2288.00,0.0081
2287.00,0.0081
2286.00,0.0080
2285.00,0.0080
2284.00,0.0080
2283.00,0.0080
2282.00,0.0079
2281.00,0.0079
2280.00,0.0078
2279.00,0.0078
2278.00,0.0079
2277.00,0.0079
2276.00,0.0079
2275.00,0.0079
2274.00,0.0079
2273.00,0.0079
2272.00,0.0079
2271.00,0.0079
2270.00,0.0079
2269.00,0.0079
2268.00,0.0078
2267.00,0.0078
2266.00,0.0078
2265.00,0.0079
2264.00,0.0080
2263.00,0.0080
2262.00,0.0080
2261.00,0.0080
2260.00,0.0080
2259.00,0.0080
2258.00,0.0079
2257.00,0.0079
2256.00,0.0080
2255.00,0.0080
2254.00,0.0080
2253.00,0.0080
2252.00,0.0080
2251.00,0.0080
2250.00,0.0079
2249.00,0.0079
2248.00,0.0079
2247.00,0.0079
2246.00,0.0079
2245.00,0.0079
2244.00,0.0078
2243.00,0.0078
2242.00,0.0078
2241.00,0.0078
2240.00,0.0078
2239.00,0.0078
2238.00,0.0077
2237.00,0.0077
2236.00,0.0076
2235.00,0.0076
2234.00,0.0077
2233.00,0.0077
2232.00,0.0078
2231.00,0.0077
2230.00,0.0076
2229.00,0.0075
2228.00,0.0075
2227.00,0.0075
2226.00,0.0075
2225.00,0.0075
2224.00,0.0075
2223.00,0.0075
2222.00,0.0074
2221.00,0.0074
2220.00,0.0075
2219.00,0.0075
2218.00,0.0075
2217.00,0.0075
2216.00,0.0075
2215.00,0.0075
2214.00,0.0074
2213.00,0.0074
2212.00,0.0075
2211.00,0.0075
2210.00,0.0075
2209.00,0.0075
2208.00,0.0076
2207.00,0.0076
2206.00,0.0076
2205.00,0.0076
2204.00,0.0075
2203.00,0.0074
2202.00,0.0073
2201.00,0.0073
2200.00,0.0074
2199.00,0.0075
2198.00,0.0076
2197.00,0.0077
2196.00,0.0077
2195.00,0.0077
2194.00,0.0076
2193.00,0.0075
2192.00,0.0074
2191.00,0.0074
2190.00,0.0074
2189.00,0.0074
2188.00,0.0075
2187.00,0.0075
2186.00,0.0075
2185.00,0.0075
2184.00,0.0074
2183.00,0.0073
2182.00,0.0073
2181.00,0.0073
2180.00,0.0073
2179.00,0.0073
2178.00,0.0072
2177.00,0.0072
2176.00,0.0073
2175.00,0.0073
2174.00,0.0074
2173.00,0.0074
2172.00,0.0074
2171.00,0.0074
2170.00,0.0073
2169.00,0.0073
2168.00,0.0073
2167.00,0.0072
2166.00,0.0072
2165.00,0.0071
2164.00,0.0072
2163.00,0.0071
2162.00,0.0069
2161.00,0.0066
2160.00,0.0064
2159.00,0.0063
2158.00,0.0064
2157.00,0.0067
2156.00,0.0069
2155.00,0.0069
2154.00,0.0068
2153.00,0.0067
2152.00,0.0067
2151.00,0.0067
2150.00,0.0067
2149.00,0.0067
2148.00,0.0068
2147.00,0.0068
2146.00,0.0068
2145.00,0.0068
2144.00,0.0068
2143.00,0.0068
2142.00,0.0068
2141.00,0.0068
2140.00,0.0068
2139.00,0.0067
2138.00,0.0066
2137.00,0.0064
2136.00,0.0064
2135.00,0.0064
2134.00,0.0064
2133.00,0.0064
2132.00,0.0065
2131.00,0.0065
2130.00,0.0065
2129.00,0.0066
2128.00,0.0066
2127.00,0.0066
2126.00,0.0066
2125.00,0.0066
2124.00,0.0066
2123.00,0.0066
2122.00,0.0065
2121.00,0.0065
2120.00,0.0066
2119.00,0.0066
2118.00,0.0065
2117.00,0.0066
2116.00,0.0066
2115.00,0.0065
2114.00,0.0065
2113.00,0.0065
2112.00,0.0065
2111.00,0.0064
2110.00,0.0064
2109.00,0.0064
2108.00,0.0064
2107.00,0.0064
2106.00,0.0064
2105.00,0.0064
2104.00,0.0064
2103.00,0.0064
2102.00,0.0064
2101.00,0.0064
2100.00,0.0064
2099.00,0.0063
2098.00,0.0062
2097.00,0.0062
2096.00,0.0062
2095.00,0.0062
2094.00,0.0062
2093.00,0.0062
2092.00,0.0063
2091.00,0.0063
2090.00,0.0062
2089.00,0.0062
2088.00,0.0063
2087.00,0.0063
2086.00,0.0063
2085.00,0.0063
2084.00,0.0064
2083.00,0.0063
2082.00,0.0063
2081.00,0.0062
2080.00,0.0062
2079.00,0.0061
2078.00,0.0061
2077.00,0.0060
2076.00,0.0061
2075.00,0.0061
2074.00,0.0061
2073.00,0.0061
2072.00,0.0061
2071.00,0.0060
2070.00,0.0059
2069.00,0.0059
2068.00,0.0059
2067.00,0.0058
2066.00,0.0057
2065.00,0.0056
2064.00,0.0056
2063.00,0.0055
2062.00,0.0055
2061.00,0.0055
2060.00,0.0056
2059.00,0.0056
2058.00,0.0055
2057.00,0.0055
2056.00,0.0054
2055.00,0.0055
2054.00,0.0056
2053.00,0.0057
2052.00,0.0057
2051.00,0.0056
2050.00,0.0055
2049.00,0.0054
2048.00,0.0054
2047.00,0.0055
2046.00,0.0054
2045.00,0.0055
2044.00,0.0055
2043.00,0.0055
2042.00,0.0054
2041.00,0.0054
2040.00,0.0055
2039.00,0.0056
2038.00,0.0056
2037.00,0.0057
2036.00,0.0057
2035.00,0.0057
2034.00,0.0056
2033.00,0.0056
2032.00,0.0057
2031.00,0.0057
2030.00,0.0057
2029.00,0.0058
2028.00,0.0058
2027.00,0.0057
2026.00,0.0055
2025.00,0.0053
2024.00,0.0053
2023.00,0.0053
2022.00,0.0053
2021.00,0.0054
2020.00,0.0055
2019.00,0.0055
2018.00,0.0054
2017.00,0.0053
2016.00,0.0053
2015.00,0.0054
2014.00,0.0054
2013.00,0.0054
2012.00,0.0055
2011.00,0.0055
2010.00,0.0055
2009.00,0.0054
2008.00,0.0053
2007.00,0.0053
2006.00,0.0052
2005.00,0.0053
2004.00,0.0054
2003.00,0.0056
2002.00,0.0056
2001.00,0.0056
2000.00,0.0057
1999.00,0.0056
1998.00,0.0056
1997.00,0.0056
1996.00,0.0056
1995.00,0.0056
1994.00,0.0054
1993.00,0.0054
1992.00,0.0054
1991.00,0.0055
1990.00,0.0056
1989.00,0.0057
1988.00,0.0057
1987.00,0.0056
1986.00,0.0055
1985.00,0.0055
1984.00,0.0055
1983.00,0.0056
1982.00,0.0055
1981.00,0.0055
1980.00,0.0054
1979.00,0.0052
1978.00,0.0050
1977.00,0.0050
1976.00,0.0051
1975.00,0.0051
1974.00,0.0051
1973.00,0.0051
1972.00,0.0053
1971.00,0.0053
1970.00,0.0053
1969.00,0.0053
1968.00,0.0052
1967.00,0.0051
1966.00,0.0049
1965.00,0.0049
1964.00,0.0049
1963.00,0.0048
1962.00,0.0047
1961.00,0.0046
1960.00,0.0046
1959.00,0.0045
1958.00,0.0045
1957.00,0.0045
1956.00,0.0046
1955.00,0.0046
1954.00,0.0046
1953.00,0.0046
1952.00,0.0046
1951.00,0.0045
1950.00,0.0044
1949.00,0.0044
1948.00,0.0044
1947.00,0.0044
1946.00,0.0044
1945.00,0.0044
1944.00,0.0044
1943.00,0.0042
1942.00,0.0041
1941.00,0.0042
1940.00,0.0043
1939.00,0.0044
1938.00,0.0044
1937.00,0.0045
1936.00,0.0045
1935.00,0.0046
1934.00,0.0046
1933.00,0.0046
1932.00,0.0047
1931.00,0.0047
1930.00,0.0046
1929.00,0.0046
1928.00,0.0047
1927.00,0.0047
1926.00,0.0046
1925.00,0.0045
1924.00,0.0045
1923.00,0.0044
1922.00,0.0045
1921.00,0.0047
1920.00,0.0048
1919.00,0.0047
1918.00,0.0045
1917.00,0.0045
1916.00,0.0045
1915.00,0.0046
1914.00,0.0046
1913.00,0.0047
1912.00,0.0047
1911.00,0.0047
1910.00,0.0047
1909.00,0.0047
1908.00,0.0048
1907.00,0.0049
1906.00,0.0050
1905.00,0.0051
1904.00,0.0051
1903.00,0.0051
1902.00,0.0051
1901.00,0.0050
1900.00,0.0050
1899.00,0.0050
1898.00,0.0048
1897.00,0.0047
1896.00,0.0047
1895.00,0.0046
1894.00,0.0045
1893.00,0.0045
1892.00,0.0046
1891.00,0.0045
1890.00,0.0044
1889.00,0.0043
1888.00,0.0044
1887.00,0.0045
1886.00,0.0045
1885.00,0.0045
1884.00,0.0046
1883.00,0.0047
1882.00,0.0047
1881.00,0.0048
1880.00,0.0049
1879.00,0.0049
1878.00,0.0049
1877.00,0.0049
1876.00,0.0049
1875.00,0.0050
1874.00,0.0050
1873.00,0.0051
1872.00,0.0053
1871.00,0.0053
1870.00,0.0050
1869.00,0.0047
1868.00,0.0045
1867.00,0.0045
1866.00,0.0045
1865.00,0.0046
1864.00,0.0047
1863.00,0.0047
1862.00,0.0047
1861.00,0.0047
1860.00,0.0047
1859.00,0.0048
1858.00,0.0048
1857.00,0.0048
1856.00,0.0049
1855.00,0.0050
1854.00,0.0050
1853.00,0.0050
1852.00,0.0051
1851.00,0.0051
1850.00,0.0050
1849.00,0.0049
1848.00,0.0050
1847.00,0.0051
1846.00,0.0050
1845.00,0.0046
1844.00,0.0043
1843.00,0.0042
1842.00,0.0043
1841.00,0.0045
1840.00,0.0046
1839.00,0.0046
1838.00,0.0045
1837.00,0.0045
1836.00,0.0045
1835.00,0.0046
1834.00,0.0047
1833.00,0.0049
1832.00,0.0050
1831.00,0.0048
1830.00,0.0045
1829.00,0.0045
1828.00,0.0047
1827.00,0.0049
1826.00,0.0048
1825.00,0.0046
1824.00,0.0046
1823.00,0.0045
1822.00,0.0045
1821.00,0.0045
1820.00,0.0045
1819.00,0.0044
1818.00,0.0043
1817.00,0.0043
1816.00,0.0043
1815.00,0.0043
1814.00,0.0043
1813.00,0.0043
1812.00,0.0043
1811.00,0.0042
1810.00,0.0041
1809.00,0.0041
1808.00,0.0042
1807.00,0.0042
1806.00,0.0042
1805.00,0.0043
1804.00,0.0043
1803.00,0.0043
1802.00,0.0042
1801.00,0.0041
1800.00,0.0040
1799.00,0.0039
1798.00,0.0039
1797.00,0.0039
1796.00,0.0041
1795.00,0.0042
1794.00,0.0041
1793.00,0.0038
1792.00,0.0036
1791.00,0.0035
1790.00,0.0035
1789.00,0.0038
1788.00,0.0040
1787.00,0.0041
1786.00,0.0040
1785.00,0.0040
1784.00,0.0041
1783.00,0.0042
1782.00,0.0043
1781.00,0.0043
1780.00,0.0044
1779.00,0.0046
1778.00,0.0048
1777.00,0.0051
1776.00,0.0055
1775.00,0.0058
1774.00,0.0058
1773.00,0.0056
1772.00,0.0055
1771.00,0.0056
1770.00,0.0058
1769.00,0.0059
1768.00,0.0059
1767.00,0.0058
1766.00,0.0059
1765.00,0.0061
1764.00,0.0061
1763.00,0.0059
1762.00,0.0055
1761.00,0.0053
1760.00,0.0053
1759.00,0.0054
1758.00,0.0053
1757.00,0.0051
1756.00,0.0051
1755.00,0.0052
1754.00,0.0053
1753.00,0.0053
1752.00,0.0052
1751.00,0.0049
1750.00,0.0047
1749.00,0.0046
1748.00,0.0047
1747.00,0.0048
1746.00,0.0049
1745.00,0.0051
1744.00,0.0054
1743.00,0.0057
1742.00,0.0061
1741.00,0.0064
1740.00,0.0067
1739.00,0.0073
1738.00,0.0081
1737.00,0.0092
1736.00,0.0101
1735.00,0.0106
1734.00,0.0111
1733.00,0.0122
1732.00,0.0136
1731.00,0.0148
1730.00,0.0157
1729.00,0.0163
1728.00,0.0169
1727.00,0.0172
1726.00,0.0173
1725.00,0.0173
1724.00,0.0175
1723.00,0.0179
1722.00,0.0187
1721.00,0.0198
1720.00,0.0211
1719.00,0.0224
1718.00,0.0239
1717.00,0.0265
1716.00,0.0303
1715.00,0.0348
1714.00,0.0398
1713.00,0.0454
1712.00,0.0514
1711.00,0.0575
1710.00,0.0636
1709.00,0.0695
1708.00,0.0754
1707.00,0.0813
1706.00,0.0875
1705.00,0.0942
1704.00,0.1009
1703.00,0.1072
1702.00,0.1133
1701.00,0.1196
1700.00,0.1261
1699.00,0.1318
1698.00,0.1359
1697.00,0.1384
1696.00,0.1394
1695.00,0.1395
1694.00,0.1392
1693.00,0.1382
1692.00,0.1358
1691.00,0.1314
1690.00,0.1247
1689.00,0.1162
1688.00,0.1072
1687.00,0.0983
1686.00,0.0888
1685.00,0.0773
1684.00,0.0654
1683.00,0.0571
1682.00,0.0526
1681.00,0.0499
1680.00,0.0479
1679.00,0.0470
1678.00,0.0472
1677.00,0.0486
1676.00,0.0511
1675.00,0.0551
1674.00,0.0605
1673.00,0.0664
1672.00,0.0726
1671.00,0.0796
1670.00,0.0874
1669.00,0.0957
1668.00,0.1036
1667.00,0.1107
1666.00,0.1172
1665.00,0.1235
1664.00,0.1298
1663.00,0.1364
1662.00,0.1430
1661.00,0.1493
1660.00,0.1553
1659.00,0.1610
1658.00,0.1666
1657.00,0.1717
1656.00,0.1764
1655.00,0.1801
1654.00,0.1820
1653.00,0.1826
1652.00,0.1836
1651.00,0.1856
1650.00,0.1879
1649.00,0.1896
1648.00,0.1900
1647.00,0.1891
1646.00,0.1875
1645.00,0.1856
1644.00,0.1836
1643.00,0.1810
1642.00,0.1773
1641.00,0.1724
1640.00,0.1669
1639.00,0.1613
1638.00,0.1552
1637.00,0.1474
1636.00,0.1376
1635.00,0.1279
1634.00,0.1203
1633.00,0.1147
1632.00,0.1099
1631.00,0.1054
1630.00,0.1009
1629.00,0.0965
1628.00,0.0924
1627.00,0.0892
1626.00,0.0866
1625.00,0.0840
1624.00,0.0809
1623.00,0.0776
1622.00,0.0746
1621.00,0.0724
1620.00,0.0708
1619.00,0.0693
1618.00,0.0679
1617.00,0.0669
1616.00,0.0667
1615.00,0.0676
1614.00,0.0689
1613.00,0.0701
1612.00,0.0708
1611.00,0.0710
1610.00,0.0706
1609.00,0.0695
1608.00,0.0681
1607.00,0.0666
1606.00,0.0654
1605.00,0.0648
1604.00,0.0648
1603.00,0.0651
1602.00,0.0656
1601.00,0.0659
1600.00,0.0657
1599.00,0.0648
1598.00,0.0634
1597.00,0.0612
1596.00,0.0583
1595.00,0.0550
1594.00,0.0516
1593.00,0.0480
1592.00,0.0446
1591.00,0.0415
1590.00,0.0388
1589.00,0.0365
1588.00,0.0345
1587.00,0.0329
1586.00,0.0316
1585.00,0.0306
1584.00,0.0297
1583.00,0.0291
1582.00,0.0287
1581.00,0.0287
1580.00,0.0289
1579.00,0.0294
1578.00,0.0300
1577.00,0.0308
1576.00,0.0322
1575.00,0.0346
1574.00,0.0374
1573.00,0.0403
1572.00,0.0431
1571.00,0.0458
1570.00,0.0487
1569.00,0.0518
1568.00,0.0546
1567.00,0.0570
1566.00,0.0591
1565.00,0.0610
1564.00,0.0628
1563.00,0.0646
1562.00,0.0664
1561.00,0.0679
1560.00,0.0688
1559.00,0.0702
1558.00,0.0732
1557.00,0.0766
1556.00,0.0802
1555.00,0.0844
1554.00,0.0892
1553.00,0.0940
1552.00,0.0982
1551.00,0.1017
1550.00,0.1042
1549.00,0.1057
1548.00,0.1063
1547.00,0.1056
1546.00,0.1036
1545.00,0.1003
1544.00,0.0965
1543.00,0.0924
1542.00,0.0874
1541.00,0.0809
1540.00,0.0733
1539.00,0.0664
1538.00,0.0617
1537.00,0.0586
1536.00,0.0559
1535.00,0.0528
1534.00,0.0488
1533.00,0.0450
1532.00,0.0422
1531.00,0.0403
1530.00,0.0389
1529.00,0.0376
1528.00,0.0364
1527.00,0.0353
1526.00,0.0346
1525.00,0.0344
1524.00,0.0344
1523.00,0.0345
1522.00,0.0347
1521.00,0.0360
1520.00,0.0383
1519.00,0.0412
1518.00,0.0441
1517.00,0.0470
1516.00,0.0495
1515.00,0.0512
1514.00,0.0520
1513.00,0.0525
1512.00,0.0531
1511.00,0.0544
1510.00,0.0565
1509.00,0.0591
1508.00,0.0619
1507.00,0.0647
1506.00,0.0669
1505.00,0.0680
1504.00,0.0684
1503.00,0.0685
1502.00,0.0686
1501.00,0.0687
1500.00,0.0691
1499.00,0.0695
1498.00,0.0701
1497.00,0.0711
1496.00,0.0727
1495.00,0.0749
1494.00,0.0774
1493.00,0.0799
1492.00,0.0824
1491.00,0.0847
1490.00,0.0871
1489.00,0.0894
1488.00,0.0915
1487.00,0.0931
1486.00,0.0943
1485.00,0.0951
1484.00,0.0955
1483.00,0.0955
1482.00,0.0950
1481.00,0.0943
1480.00,0.0935
1479.00,0.0924
1478.00,0.0910
1477.00,0.0891
1476.00,0.0869
1475.00,0.0845
1474.00,0.0818
1473.00,0.0787
1472.00,0.0756
1471.00,0.0731
1470.00,0.0713
1469.00,0.0699
1468.00,0.0688
1467.00,0.0680
1466.00,0.0674
1465.00,0.0673
1464.00,0.0679
1463.00,0.0693
1462.00,0.0713
1461.00,0.0736
1460.00,0.0760
1459.00,0.0781
1458.00,0.0798
1457.00,0.0813
1456.00,0.0827
1455.00,0.0838
1454.00,0.0847
1453.00,0.0853
1452.00,0.0858
1451.00,0.0863
1450.00,0.0870
1449.00,0.0879
1448.00,0.0890
1447.00,0.0901
1446.00,0.0913
1445.00,0.0926
1444.00,0.0937
1443.00,0.0945
1442.00,0.0952
1441.00,0.0959
1440.00,0.0967
1439.00,0.0973
1438.00,0.0979
1437.00,0.0984
1436.00,0.0994
1435.00,0.1010
1434.00,0.1032
1433.00,0.1056
1432.00,0.1079
1431.00,0.1095
1430.00,0.1099
1429.00,0.1091
1428.00,0.1070
1427.00,0.1038
1426.00,0.0996
1425.00,0.0946
1424.00,0.0892
1423.00,0.0843
1422.00,0.0801
1421.00,0.0762
1420.00,0.0720
1419.00,0.0677
1418.00,0.0644
1417.00,0.0622
1416.00,0.0607
1415.00,0.0595
1414.00,0.0585
1413.00,0.0575
1412.00,0.0569
1411.00,0.0567
1410.00,0.0569
1409.00,0.0575
1408.00,0.0582
1407.00,0.0590
1406.00,0.0596
1405.00,0.0600
1404.00,0.0601
1403.00,0.0600
1402.00,0.0597
1401.00,0.0590
1400.00,0.0579
1399.00,0.0565
1398.00,0.0551
1397.00,0.0536
1396.00,0.0519
1395.00,0.0501
1394.00,0.0484
1393.00,0.0472
1392.00,0.0463
1391.00,0.0457
1390.00,0.0451
1389.00,0.0444
1388.00,0.0435
1387.00,0.0427
1386.00,0.0423
1385.00,0.0422
1384.00,0.0424
1383.00,0.0428
1382.00,0.0435
1381.00,0.0443
1380.00,0.0452
1379.00,0.0462
1378.00,0.0473
1377.00,0.0482
1376.00,0.0490
1375.00,0.0496
1374.00,0.0502
1373.00,0.0508
1372.00,0.0515
1371.00,0.0522
1370.00,0.0530
1369.00,0.0540
1368.00,0.0554
1367.00,0.0573
1366.00,0.0599
1365.00,0.0631
1364.00,0.0670
1363.00,0.0714
1362.00,0.0759
1361.00,0.0796
1360.00,0.0820
1359.00,0.0827
1358.00,0.0818
1357.00,0.0793
1356.00,0.0755
1355.00,0.0708
1354.00,0.0658
1353.00,0.0609
1352.00,0.0562
1351.00,0.0520
1350.00,0.0483
1349.00,0.0450
1348.00,0.0422
1347.00,0.0397
1346.00,0.0376
1345.00,0.0358
1344.00,0.0343
1343.00,0.0330
1342.00,0.0319
1341.00,0.0309
1340.00,0.0302
1339.00,0.0297
1338.00,0.0297
1337.00,0.0301
1336.00,0.0309
1335.00,0.0321
1334.00,0.0338
1333.00,0.0361
1332.00,0.0390
1331.00,0.0422
1330.00,0.0455
1329.00,0.0482
1328.00,0.0499
1327.00,0.0506
1326.00,0.0502
1325.00,0.0488
1324.00,0.0470
1323.00,0.0448
1322.00,0.0425
1321.00,0.0403
1320.00,0.0381
1319.00,0.0361
1318.00,0.0343
1317.00,0.0326
1316.00,0.0312
1315.00,0.0299
1314.00,0.0288
1313.00,0.0278
1312.00,0.0270
1311.00,0.0263
1310.00,0.0257
1309.00,0.0253
1308.00,0.0249
1307.00,0.0246
1306.00,0.0245
1305.00,0.0244
1304.00,0.0244
1303.00,0.0245
1302.00,0.0246
1301.00,0.0247
1300.00,0.0249
1299.00,0.0253
1298.00,0.0258
1297.00,0.0268
1296.00,0.0281
1295.00,0.0301
1294.00,0.0327
1293.00,0.0358
1292.00,0.0395
1291.00,0.0434
1290.00,0.0472
1289.00,0.0507
1288.00,0.0534
1287.00,0.0552
1286.00,0.0561
1285.00,0.0558
1284.00,0.0546
1283.00,0.0524
1282.00,0.0496
1281.00,0.0463
1280.00,0.0427
1279.00,0.0390
1278.00,0.0355
1277.00,0.0325
1276.00,0.0300
1275.00,0.0280
1274.00,0.0264
1273.00,0.0251
1272.00,0.0241
1271.00,0.0234
1270.00,0.0231
1269.00,0.0232
1268.00,0.0239
1267.00,0.0254
1266.00,0.0279
1265.00,0.0315
1264.00,0.0361
1263.00,0.0412
1262.00,0.0463
1261.00,0.0505
1260.00,0.0533
1259.00,0.0545
1258.00,0.0544
1257.00,0.0533
1256.00,0.0518
1255.00,0.0505
1254.00,0.0496
1253.00,0.0493
1252.00,0.0497
1251.00,0.0509
1250.00,0.0529
1249.00,0.0558
1248.00,0.0599
1247.00,0.0653
1246.00,0.0719
1245.00,0.0795
1244.00,0.0876
1243.00,0.0956
1242.00,0.1026
1241.00,0.1080
1240.00,0.1116
1239.00,0.1133
1238.00,0.1132
1237.00,0.1117
1236.00,0.1095
1235.00,0.1071
1234.00,0.1051
1233.00,0.1038
1232.00,0.1036
1231.00,0.1043
1230.00,0.1056
1229.00,0.1070
1228.00,0.1081
1227.00,0.1083
1226.00,0.1075
1225.00,0.1055
1224.00,0.1025
1223.00,0.0987
1222.00,0.0945
1221.00,0.0904
1220.00,0.0866
1219.00,0.0834
1218.00,0.0810
1217.00,0.0793
1216.00,0.0783
1215.00,0.0775
1214.00,0.0768
1213.00,0.0757
1212.00,0.0740
1211.00,0.0717
1210.00,0.0690
1209.00,0.0660
1208.00,0.0628
1207.00,0.0597
1206.00,0.0569
1205.00,0.0543
1204.00,0.0520
1203.00,0.0501
1202.00,0.0485
1201.00,0.0474
1200.00,0.0467
1199.00,0.0464
1198.00,0.0467
1197.00,0.0474
1196.00,0.0485
1195.00,0.0499
1194.00,0.0513
1193.00,0.0527
1192.00,0.0536
1191.00,0.0541
1190.00,0.0542
1189.00,0.0540
1188.00,0.0533
1187.00,0.0524
1186.00,0.0512
1185.00,0.0496
1184.00,0.0476
1183.00,0.0452
1182.00,0.0427
1181.00,0.0402
1180.00,0.0379
1179.00,0.0359
1178.00,0.0344
1177.00,0.0337
1176.00,0.0340
1175.00,0.0355
1174.00,0.0381
1173.00,0.0405
1172.00,0.0415
1171.00,0.0406
1170.00,0.0382
1169.00,0.0355
1168.00,0.0331
1167.00,0.0314
1166.00,0.0300
1165.00,0.0290
1164.00,0.0282
1163.00,0.0275
1162.00,0.0270
1161.00,0.0265
1160.00,0.0261
1159.00,0.0257
1158.00,0.0254
1157.00,0.0250
1156.00,0.0247
1155.00,0.0244
1154.00,0.0242
1153.00,0.0239
1152.00,0.0236
1151.00,0.0234
1150.00,0.0232
1149.00,0.0230
1148.00,0.0228
1147.00,0.0226
1146.00,0.0224
1145.00,0.0222
1144.00,0.0221
1143.00,0.0220
1142.00,0.0219
1141.00,0.0219
1140.00,0.0218
1139.00,0.0218
1138.00,0.0218
1137.00,0.0218
1136.00,0.0218
1135.00,0.0218
1134.00,0.0218
1133.00,0.0218
1132.00,0.0219
1131.00,0.0219
1130.00,0.0219
1129.00,0.0220
1128.00,0.0220
1127.00,0.0221
1126.00,0.0222
1125.00,0.0222
1124.00,0.0222
1123.00,0.0220
1122.00,0.0218
1121.00,0.0215
1120.00,0.0212
1119.00,0.0209
1118.00,0.0207
1117.00,0.0206
1116.00,0.0206
1115.00,0.0209
1114.00,0.0216
1113.00,0.0227
1112.00,0.0241
1111.00,0.0259
1110.00,0.0277
1109.00,0.0291
1108.00,0.0297
1107.00,0.0294
1106.00,0.0282
1105.00,0.0266
1104.00,0.0249
1103.00,0.0233
1102.00,0.0221
1101.00,0.0211
1100.00,0.0203
1099.00,0.0197
1098.00,0.0192
1097.00,0.0189
1096.00,0.0186
1095.00,0.0183
1094.00,0.0181
1093.00,0.0180
1092.00,0.0179
1091.00,0.0179
1090.00,0.0179
1089.00,0.0180
1088.00,0.0182
1087.00,0.0184
1086.00,0.0187
1085.00,0.0190
1084.00,0.0193
1083.00,0.0197
1082.00,0.0201
1081.00,0.0204
1080.00,0.0208
1079.00,0.0211
1078.00,0.0215
1077.00,0.0218
1076.00,0.0221
1075.00,0.0223
1074.00,0.0225
1073.00,0.0225
1072.00,0.0225
1071.00,0.0223
1070.00,0.0221
1069.00,0.0219
1068.00,0.0216
1067.00,0.0212
1066.00,0.0208
1065.00,0.0203
1064.00,0.0197
1063.00,0.0191
1062.00,0.0186
1061.00,0.0181
1060.00,0.0177
1059.00,0.0173
1058.00,0.0170
1057.00,0.0168
1056.00,0.0166
1055.00,0.0165
1054.00,0.0164
1053.00,0.0164
1052.00,0.0164
1051.00,0.0164
1050.00,0.0165
1049.00,0.0166
1048.00,0.0168
1047.00,0.0170
1046.00,0.0173
1045.00,0.0177
1044.00,0.0181
1043.00,0.0186
1042.00,0.0192
1041.00,0.0200
1040.00,0.0210
1039.00,0.0223
1038.00,0.0238
1037.00,0.0256
1036.00,0.0277
1035.00,0.0301
1034.00,0.0330
1033.00,0.0364
1032.00,0.0402
1031.00,0.0443
1030.00,0.0485
1029.00,0.0524
1028.00,0.0560
1027.00,0.0588
1026.00,0.0608
1025.00,0.0617
1024.00,0.0613
1023.00,0.0599
1022.00,0.0575
1021.00,0.0545
1020.00,0.0513
1019.00,0.0481
1018.00,0.0451
1017.00,0.0423
1016.00,0.0397
1015.00,0.0373
1014.00,0.0350
1013.00,0.0329
1012.00,0.0308
1011.00,0.0290
1010.00,0.0275
1009.00,0.0264
1008.00,0.0254
1007.00,0.0246
1006.00,0.0237
1005.00,0.0229
1004.00,0.0220
1003.00,0.0213
1002.00,0.0206
1001.00,0.0199
1000.00,0.0193
999.00,0.0188
998.00,0.0184
997.00,0.0180
996.00,0.0176
995.00,0.0173
994.00,0.0171
993.00,0.0169
992.00,0.0168
991.00,0.0168
990.00,0.0169
989.00,0.0172
988.00,0.0177
987.00,0.0185
986.00,0.0196
985.00,0.0211
984.00,0.0230
983.00,0.0254
982.00,0.0283
981.00,0.0318
980.00,0.0357
979.00,0.0401
978.00,0.0448
977.00,0.0495
976.00,0.0539
975.00,0.0578
974.00,0.0608
973.00,0.0628
972.00,0.0637
971.00,0.0632
970.00,0.0614
969.00,0.0582
968.00,0.0539
967.00,0.0489
966.00,0.0436
965.00,0.0386
964.00,0.0341
963.00,0.0303
962.00,0.0273
961.00,0.0249
960.00,0.0230
959.00,0.0215
958.00,0.0203
957.00,0.0194
956.00,0.0187
955.00,0.0182
954.00,0.0177
953.00,0.0173
952.00,0.0167
951.00,0.0162
950.00,0.0158
949.00,0.0154
948.00,0.0151
947.00,0.0148
946.00,0.0146
945.00,0.0144
944.00,0.0142
943.00,0.0140
942.00,0.0139
941.00,0.0137
940.00,0.0136
939.00,0.0135
938.00,0.0134
937.00,0.0134
936.00,0.0133
935.00,0.0134
934.00,0.0136
933.00,0.0139
932.00,0.0143
931.00,0.0147
930.00,0.0152
929.00,0.0157
928.00,0.0161
927.00,0.0165
926.00,0.0167
925.00,0.0166
924.00,0.0163
923.00,0.0157
922.00,0.0150
921.00,0.0143
920.00,0.0137
919.00,0.0133
918.00,0.0130
917.00,0.0128
916.00,0.0127
915.00,0.0126
914.00,0.0125
913.00,0.0124
912.00,0.0123
911.00,0.0122
910.00,0.0122
909.00,0.0121
908.00,0.0121
907.00,0.0120
906.00,0.0119
905.00,0.0119
904.00,0.0118
903.00,0.0118
902.00,0.0118
901.00,0.0117
900.00,0.0117
899.00,0.0117
898.00,0.0117
897.00,0.0117
896.00,0.0117
895.00,0.0118
894.00,0.0119
893.00,0.0119
892.00,0.0120
891.00,0.0121
890.00,0.0122
889.00,0.0123
888.00,0.0125
887.00,0.0128
886.00,0.0131
885.00,0.0135
884.00,0.0140
883.00,0.0145
882.00,0.0152
881.00,0.0159
880.00,0.0167
879.00,0.0175
878.00,0.0182
877.00,0.0188
876.00,0.0194
875.00,0.0198
874.00,0.0201
873.00,0.0204
872.00,0.0205
871.00,0.0207
870.00,0.0210
869.00,0.0212
868.00,0.0216
867.00,0.0221
866.00,0.0228
865.00,0.0237
864.00,0.0247
863.00,0.0260
862.00,0.0274
861.00,0.0290
860.00,0.0306
859.00,0.0318
858.00,0.0324
857.00,0.0321
856.00,0.0308
855.00,0.0289
854.00,0.0267
853.00,0.0245
852.00,0.0225
851.00,0.0208
850.00,0.0194
849.00,0.0184
848.00,0.0178
847.00,0.0175
846.00,0.0178
845.00,0.0188
844.00,0.0207
843.00,0.0241
842.00,0.0292
841.00,0.0359
840.00,0.0435
839.00,0.0506
838.00,0.0561
837.00,0.0587
836.00,0.0580
835.00,0.0541
834.00,0.0481
833.00,0.0415
832.00,0.0353
831.00,0.0304
830.00,0.0267
829.00,0.0240
828.00,0.0221
827.00,0.0207
826.00,0.0198
825.00,0.0191
824.00,0.0186
823.00,0.0182
822.00,0.0180
821.00,0.0179
820.00,0.0180
819.00,0.0182
818.00,0.0186
817.00,0.0193
816.00,0.0203
815.00,0.0218
814.00,0.0241
813.00,0.0275
812.00,0.0325
811.00,0.0392
810.00,0.0470
809.00,0.0541
808.00,0.0584
807.00,0.0584
806.00,0.0546
805.00,0.0485
804.00,0.0423
803.00,0.0378
802.00,0.0354
801.00,0.0350
800.00,0.0360
799.00,0.0380
798.00,0.0402
797.00,0.0420
796.00,0.0426
795.00,0.0417
794.00,0.0393
793.00,0.0360
792.00,0.0326
791.00,0.0294
790.00,0.0267
789.00,0.0245
788.00,0.0228
787.00,0.0215
786.00,0.0205
785.00,0.0196
784.00,0.0189
783.00,0.0184
782.00,0.0179
781.00,0.0176
780.00,0.0175
779.00,0.0174
778.00,0.0173
777.00,0.0171
776.00,0.0168
775.00,0.0166
774.00,0.0166
773.00,0.0168
772.00,0.0171
771.00,0.0174
770.00,0.0176
769.00,0.0180
768.00,0.0186
767.00,0.0193
766.00,0.0200
765.00,0.0215
764.00,0.0246
763.00,0.0304
762.00,0.0390
761.00,0.0494
760.00,0.0587
759.00,0.0637
758.00,0.0619
757.00,0.0546
756.00,0.0455
755.00,0.0385
754.00,0.0355
753.00,0.0363
752.00,0.0406
751.00,0.0486
750.00,0.0614
749.00,0.0797
748.00,0.1031
747.00,0.1282
746.00,0.1492
745.00,0.1601
744.00,0.1598
743.00,0.1520
742.00,0.1420
741.00,0.1323
740.00,0.1228
739.00,0.1130
738.00,0.1031
737.00,0.0938
736.00,0.0855
735.00,0.0786
734.00,0.0731
733.00,0.0688
732.00,0.0653
731.00,0.0625
730.00,0.0603
729.00,0.0588
728.00,0.0576
727.00,0.0564
726.00,0.0553
725.00,0.0540
724.00,0.0527
723.00,0.0516
722.00,0.0508
721.00,0.0504
720.00,0.0505
719.00,0.0510
718.00,0.0519
717.00,0.0530
716.00,0.0540
715.00,0.0548
714.00,0.0553
713.00,0.0555
712.00,0.0552
711.00,0.0541
710.00,0.0520
709.00,0.0491
708.00,0.0461
707.00,0.0436
706.00,0.0422
705.00,0.0418
704.00,0.0422
703.00,0.0434
702.00,0.0452
701.00,0.0474
700.00,0.0491
699.00,0.0501
698.00,0.0505
697.00,0.0509
696.00,0.0515
695.00,0.0526
694.00,0.0540
693.00,0.0557
692.00,0.0574
691.00,0.0591
690.00,0.0607
689.00,0.0623
688.00,0.0636
687.00,0.0646
686.00,0.0654
685.00,0.0658
684.00,0.0660
683.00,0.0659
682.00,0.0655
681.00,0.0649
680.00,0.0641
679.00,0.0631
678.00,0.0619
677.00,0.0607
676.00,0.0595
675.00,0.0581
674.00,0.0568
673.00,0.0555
672.00,0.0542
671.00,0.0530
670.00,0.0519
669.00,0.0508
668.00,0.0495
667.00,0.0482
666.00,0.0469
665.00,0.0457
664.00,0.0444
663.00,0.0433
662.00,0.0422
661.00,0.0413
660.00,0.0403
659.00,0.0393
658.00,0.0385
657.00,0.0378
656.00,0.0371
655.00,0.0366
654.00,0.0364
653.00,0.0367
652.00,0.0374
651.00,0.0386
650.00,0.0400
649.00,0.0413
648.00,0.0422
647.00,0.0428
646.00,0.0430
645.00,0.0426
644.00,0.0418
643.00,0.0407
642.00,0.0394
641.00,0.0379
640.00,0.0362
639.00,0.0345
638.00,0.0330
637.00,0.0318
636.00,0.0309
635.00,0.0303
634.00,0.0300
633.00,0.0300
632.00,0.0303
631.00,0.0311
630.00,0.0325
629.00,0.0344
628.00,0.0366
627.00,0.0388
626.00,0.0406
625.00,0.0418
624.00,0.0425
623.00,0.0430
622.00,0.0438
621.00,0.0448
620.00,0.0459
619.00,0.0470
618.00,0.0482
617.00,0.0499
616.00,0.0524
615.00,0.0563
614.00,0.0618
613.00,0.0692
612.00,0.0781
611.00,0.0872
610.00,0.0944
609.00,0.0975
608.00,0.0958
607.00,0.0903
606.00,0.0831
605.00,0.0762
604.00,0.0700
603.00,0.0643
602.00,0.0587
601.00,0.0535
600.00,0.0488
599.00,0.0449
598.00,0.0416
597.00,0.0390
596.00,0.0369
595.00,0.0351
594.00,0.0335
593.00,0.0321
592.00,0.0308
591.00,0.0297
590.00,0.0287
589.00,0.0279
588.00,0.0271
587.00,0.0264
586.00,0.0256
585.00,0.0249
584.00,0.0242
583.00,0.0236
582.00,0.0230
581.00,0.0224
580.00,0.0219
579.00,0.0214
578.00,0.0211
577.00,0.0207
576.00,0.0203
575.00,0.0200
574.00,0.0196
573.00,0.0193
572.00,0.0189
571.00,0.0185
570.00,0.0182
569.00,0.0180
568.00,0.0177
567.00,0.0175
566.00,0.0173
565.00,0.0171
564.00,0.0168
563.00,0.0165
562.00,0.0163
561.00,0.0162
560.00,0.0160
559.00,0.0158
558.00,0.0156
557.00,0.0155
556.00,0.0154
555.00,0.0154
554.00,0.0155
553.00,0.0157
552.00,0.0157
551.00,0.0156
550.00,0.0153
549.00,0.0149
548.00,0.0144
547.00,0.0139
546.00,0.0135
545.00,0.0131
544.00,0.0127
543.00,0.0123
542.00,0.0119
541.00,0.0116
540.00,0.0112
539.00,0.0109
538.00,0.0107
537.00,0.0106
536.00,0.0104
535.00,0.0101
534.00,0.0100
533.00,0.0099
532.00,0.0098
531.00,0.0099
530.00,0.0100
529.00,0.0103
528.00,0.0109
527.00,0.0120
526.00,0.0139
525.00,0.0173
524.00,0.0229
523.00,0.0315
522.00,0.0431
521.00,0.0560
520.00,0.0679
519.00,0.0760
518.00,0.0780
517.00,0.0734
516.00,0.0640
515.00,0.0530
514.00,0.0431
513.00,0.0354
512.00,0.0299
511.00,0.0263
510.00,0.0248
509.00,0.0256
508.00,0.0294
507.00,0.0371
506.00,0.0484
505.00,0.0608
504.00,0.0706
503.00,0.0741
502.00,0.0703
501.00,0.0618
500.00,0.0524
499.00,0.0444
498.00,0.0381
497.00,0.0335
496.00,0.0301
495.00,0.0276
494.00,0.0260
493.00,0.0250
492.00,0.0249
491.00,0.0257
490.00,0.0281
489.00,0.0323
488.00,0.0389
487.00,0.0477
486.00,0.0590
485.00,0.0729
484.00,0.0892
483.00,0.1061
482.00,0.1196
481.00,0.1249
480.00,0.1196
479.00,0.1054
478.00,0.0873
477.00,0.0702
476.00,0.0569
475.00,0.0475
474.00,0.0412
473.00,0.0369
472.00,0.0341
471.00,0.0326
470.00,0.0321
469.00,0.0325
468.00,0.0333
467.00,0.0339
466.00,0.0342
465.00,0.0342
464.00,0.0342
463.00,0.0339
462.00,0.0331
461.00,0.0315
460.00,0.0297
459.00,0.0279
458.00,0.0267
457.00,0.0259
456.00,0.0256
455.00,0.0257
454.00,0.0264
453.00,0.0277
452.00,0.0296
451.00,0.0327
450.00,0.0373
449.00,0.0436
448.00,0.0517
447.00,0.0606
446.00,0.0689
445.00,0.0747
444.00,0.0767
443.00,0.0747
442.00,0.0698
441.00,0.0638
440.00,0.0582
439.00,0.0537
438.00,0.0507
437.00,0.0490
436.00,0.0484
435.00,0.0490
434.00,0.0509
433.00,0.0540
432.00,0.0585
431.00,0.0641
430.00,0.0705
429.00,0.0774
428.00,0.0841
427.00,0.0899
426.00,0.0943
425.00,0.0969
424.00,0.0972
423.00,0.0950
422.00,0.0909
421.00,0.0855
420.00,0.0785
419.00,0.0698
418.00,0.0615
417.00,0.0558
416.00,0.0520
415.00,0.0489
414.00,0.0459
413.00,0.0426
412.00,0.0394
411.00,0.0364
410.00,0.0340
409.00,0.0322
408.00,0.0304
407.00,0.0288
406.00,0.0279
405.00,0.0277
404.00,0.0279
403.00,0.0284
402.00,0.0293
401.00,0.0306
400.00,0.0322
