Created as New Dataset,Sample 746 By YargerLab Date Friday, March 20 2026
cm-1,A
4000.00,0.0116
3999.00,0.0116
3998.00,0.0116
3997.00,0.0116
3996.00,0.0116
3995.00,0.0116
3994.00,0.0116
3993.00,0.0116
3992.00,0.0116
3991.00,0.0116
3990.00,0.0116
3989.00,0.0116
3988.00,0.0116
3987.00,0.0116
3986.00,0.0116
3985.00,0.0116
3984.00,0.0116
3983.00,0.0116
3982.00,0.0117
3981.00,0.0117
3980.00,0.0117
3979.00,0.0117
3978.00,0.0117
3977.00,0.0117
3976.00,0.0117
3975.00,0.0117
3974.00,0.0117
3973.00,0.0116
3972.00,0.0116
3971.00,0.0116
3970.00,0.0116
3969.00,0.0116
3968.00,0.0116
3967.00,0.0116
3966.00,0.0116
3965.00,0.0116
3964.00,0.0116
3963.00,0.0116
3962.00,0.0116
3961.00,0.0116
3960.00,0.0116
3959.00,0.0116
3958.00,0.0116
3957.00,0.0116
3956.00,0.0116
3955.00,0.0116
3954.00,0.0116
3953.00,0.0116
3952.00,0.0116
3951.00,0.0116
3950.00,0.0116
3949.00,0.0116
3948.00,0.0116
3947.00,0.0116
3946.00,0.0116
3945.00,0.0117
3944.00,0.0117
3943.00,0.0117
3942.00,0.0117
3941.00,0.0117
3940.00,0.0117
3939.00,0.0116
3938.00,0.0116
3937.00,0.0116
3936.00,0.0116
3935.00,0.0116
3934.00,0.0116
3933.00,0.0116
3932.00,0.0116
3931.00,0.0116
3930.00,0.0116
3929.00,0.0116
3928.00,0.0116
3927.00,0.0116
3926.00,0.0116
3925.00,0.0116
3924.00,0.0116
3923.00,0.0116
3922.00,0.0116
3921.00,0.0116
3920.00,0.0116
3919.00,0.0116
3918.00,0.0115
3917.00,0.0115
3916.00,0.0115
3915.00,0.0115
3914.00,0.0115
3913.00,0.0115
3912.00,0.0115
3911.00,0.0115
3910.00,0.0115
3909.00,0.0115
3908.00,0.0115
3907.00,0.0115
3906.00,0.0115
3905.00,0.0115
3904.00,0.0115
3903.00,0.0115
3902.00,0.0115
3901.00,0.0115
3900.00,0.0115
3899.00,0.0115
3898.00,0.0115
3897.00,0.0115
3896.00,0.0115
3895.00,0.0115
3894.00,0.0115
3893.00,0.0115
3892.00,0.0115
3891.00,0.0115
3890.00,0.0115
3889.00,0.0114
3888.00,0.0114
3887.00,0.0114
3886.00,0.0114
3885.00,0.0114
3884.00,0.0114
3883.00,0.0114
3882.00,0.0114
3881.00,0.0114
3880.00,0.0114
3879.00,0.0114
3878.00,0.0114
3877.00,0.0114
3876.00,0.0114
3875.00,0.0114
3874.00,0.0114
3873.00,0.0114
3872.00,0.0114
3871.00,0.0113
3870.00,0.0113
3869.00,0.0113
3868.00,0.0113
3867.00,0.0113
3866.00,0.0113
3865.00,0.0113
3864.00,0.0113
3863.00,0.0113
3862.00,0.0113
3861.00,0.0114
3860.00,0.0114
3859.00,0.0114
3858.00,0.0113
3857.00,0.0112
3856.00,0.0111
3855.00,0.0110
3854.00,0.0109
3853.00,0.0110
3852.00,0.0110
3851.00,0.0110
3850.00,0.0111
3849.00,0.0111
3848.00,0.0112
3847.00,0.0113
3846.00,0.0113
3845.00,0.0113
3844.00,0.0113
3843.00,0.0113
3842.00,0.0113
3841.00,0.0113
3840.00,0.0113
3839.00,0.0112
3838.00,0.0112
3837.00,0.0112
3836.00,0.0112
3835.00,0.0112
3834.00,0.0112
3833.00,0.0112
3832.00,0.0112
3831.00,0.0112
3830.00,0.0112
3829.00,0.0113
3828.00,0.0113
3827.00,0.0113
3826.00,0.0113
3825.00,0.0112
3824.00,0.0112
3823.00,0.0112
3822.00,0.0112
3821.00,0.0112
3820.00,0.0112
3819.00,0.0111
3818.00,0.0111
3817.00,0.0111
3816.00,0.0111
3815.00,0.0111
3814.00,0.0111
3813.00,0.0111
3812.00,0.0111
3811.00,0.0112
3810.00,0.0111
3809.00,0.0111
3808.00,0.0111
3807.00,0.0111
3806.00,0.0111
3805.00,0.0111
3804.00,0.0111
3803.00,0.0110
3802.00,0.0110
3801.00,0.0111
3800.00,0.0111
3799.00,0.0111
3798.00,0.0111
3797.00,0.0111
3796.00,0.0111
3795.00,0.0112
3794.00,0.0112
3793.00,0.0112
3792.00,0.0111
3791.00,0.0111
3790.00,0.0111
3789.00,0.0111
3788.00,0.0111
3787.00,0.0111
3786.00,0.0111
3785.00,0.0111
3784.00,0.0111
3783.00,0.0112
3782.00,0.0112
3781.00,0.0112
3780.00,0.0111
3779.00,0.0111
3778.00,0.0111
3777.00,0.0111
3776.00,0.0111
3775.00,0.0111
3774.00,0.0111
3773.00,0.0111
3772.00,0.0111
3771.00,0.0111
3770.00,0.0111
3769.00,0.0111
3768.00,0.0111
3767.00,0.0111
3766.00,0.0111
3765.00,0.0111
3764.00,0.0111
3763.00,0.0111
3762.00,0.0110
3761.00,0.0110
3760.00,0.0111
3759.00,0.0111
3758.00,0.0111
3757.00,0.0111
3756.00,0.0111
3755.00,0.0111
3754.00,0.0110
3753.00,0.0109
3752.00,0.0109
3751.00,0.0109
3750.00,0.0109
3749.00,0.0109
3748.00,0.0108
3747.00,0.0108
3746.00,0.0108
3745.00,0.0108
3744.00,0.0109
3743.00,0.0109
3742.00,0.0109
3741.00,0.0109
3740.00,0.0110
3739.00,0.0110
3738.00,0.0110
3737.00,0.0110
3736.00,0.0110
3735.00,0.0110
3734.00,0.0109
3733.00,0.0109
3732.00,0.0108
3731.00,0.0108
3730.00,0.0109
3729.00,0.0109
3728.00,0.0109
3727.00,0.0109
3726.00,0.0109
3725.00,0.0109
3724.00,0.0109
3723.00,0.0109
3722.00,0.0109
3721.00,0.0110
3720.00,0.0109
3719.00,0.0109
3718.00,0.0109
3717.00,0.0108
3716.00,0.0108
3715.00,0.0108
3714.00,0.0108
3713.00,0.0108
3712.00,0.0108
3711.00,0.0108
3710.00,0.0108
3709.00,0.0108
3708.00,0.0108
3707.00,0.0109
3706.00,0.0109
3705.00,0.0109
3704.00,0.0109
3703.00,0.0108
3702.00,0.0108
3701.00,0.0108
3700.00,0.0108
3699.00,0.0108
3698.00,0.0108
3697.00,0.0108
3696.00,0.0108
3695.00,0.0108
3694.00,0.0108
3693.00,0.0107
3692.00,0.0107
3691.00,0.0107
3690.00,0.0106
3689.00,0.0107
3688.00,0.0107
3687.00,0.0107
3686.00,0.0107
3685.00,0.0106
3684.00,0.0106
3683.00,0.0107
3682.00,0.0107
3681.00,0.0107
3680.00,0.0107
3679.00,0.0107
3678.00,0.0106
3677.00,0.0106
3676.00,0.0106
3675.00,0.0106
3674.00,0.0106
3673.00,0.0106
3672.00,0.0105
3671.00,0.0105
3670.00,0.0106
3669.00,0.0106
3668.00,0.0106
3667.00,0.0106
3666.00,0.0106
3665.00,0.0106
3664.00,0.0106
3663.00,0.0107
3662.00,0.0107
3661.00,0.0107
3660.00,0.0107
3659.00,0.0107
3658.00,0.0106
3657.00,0.0106
3656.00,0.0106
3655.00,0.0106
3654.00,0.0106
3653.00,0.0106
3652.00,0.0105
3651.00,0.0105
3650.00,0.0106
3649.00,0.0106
3648.00,0.0106
3647.00,0.0106
3646.00,0.0107
3645.00,0.0107
3644.00,0.0107
3643.00,0.0107
3642.00,0.0107
3641.00,0.0107
3640.00,0.0107
3639.00,0.0106
3638.00,0.0106
3637.00,0.0106
3636.00,0.0106
3635.00,0.0106
3634.00,0.0106
3633.00,0.0106
3632.00,0.0106
3631.00,0.0105
3630.00,0.0105
3629.00,0.0105
3628.00,0.0105
3627.00,0.0105
3626.00,0.0105
3625.00,0.0105
3624.00,0.0105
3623.00,0.0106
3622.00,0.0106
3621.00,0.0106
3620.00,0.0106
3619.00,0.0106
3618.00,0.0106
3617.00,0.0106
3616.00,0.0106
3615.00,0.0106
3614.00,0.0106
3613.00,0.0106
3612.00,0.0106
3611.00,0.0106
3610.00,0.0106
3609.00,0.0106
3608.00,0.0106
3607.00,0.0106
3606.00,0.0106
3605.00,0.0106
3604.00,0.0105
3603.00,0.0105
3602.00,0.0105
3601.00,0.0105
3600.00,0.0105
3599.00,0.0105
3598.00,0.0105
3597.00,0.0105
3596.00,0.0105
3595.00,0.0105
3594.00,0.0105
3593.00,0.0105
3592.00,0.0104
3591.00,0.0104
3590.00,0.0104
3589.00,0.0104
3588.00,0.0105
3587.00,0.0105
3586.00,0.0105
3585.00,0.0105
3584.00,0.0105
3583.00,0.0105
3582.00,0.0105
3581.00,0.0104
3580.00,0.0104
3579.00,0.0104
3578.00,0.0104
3577.00,0.0105
3576.00,0.0104
3575.00,0.0104
3574.00,0.0104
3573.00,0.0104
3572.00,0.0104
3571.00,0.0104
3570.00,0.0104
3569.00,0.0105
3568.00,0.0105
3567.00,0.0105
3566.00,0.0106
3565.00,0.0106
3564.00,0.0106
3563.00,0.0105
3562.00,0.0105
3561.00,0.0105
3560.00,0.0105
3559.00,0.0104
3558.00,0.0104
3557.00,0.0104
3556.00,0.0104
3555.00,0.0104
3554.00,0.0104
3553.00,0.0104
3552.00,0.0104
3551.00,0.0104
3550.00,0.0104
3549.00,0.0104
3548.00,0.0104
3547.00,0.0104
3546.00,0.0104
3545.00,0.0104
3544.00,0.0104
3543.00,0.0104
3542.00,0.0104
3541.00,0.0104
3540.00,0.0104
3539.00,0.0104
3538.00,0.0104
3537.00,0.0104
3536.00,0.0104
3535.00,0.0104
3534.00,0.0104
3533.00,0.0104
3532.00,0.0104
3531.00,0.0104
3530.00,0.0104
3529.00,0.0104
3528.00,0.0104
3527.00,0.0104
3526.00,0.0104
3525.00,0.0104
3524.00,0.0104
3523.00,0.0103
3522.00,0.0103
3521.00,0.0103
3520.00,0.0103
3519.00,0.0103
3518.00,0.0103
3517.00,0.0103
3516.00,0.0103
3515.00,0.0103
3514.00,0.0103
3513.00,0.0103
3512.00,0.0103
3511.00,0.0103
3510.00,0.0103
3509.00,0.0103
3508.00,0.0103
3507.00,0.0103
3506.00,0.0103
3505.00,0.0103
3504.00,0.0103
3503.00,0.0103
3502.00,0.0103
3501.00,0.0103
3500.00,0.0103
3499.00,0.0103
3498.00,0.0103
3497.00,0.0103
3496.00,0.0103
3495.00,0.0102
3494.00,0.0102
3493.00,0.0102
3492.00,0.0102
3491.00,0.0102
3490.00,0.0102
3489.00,0.0102
3488.00,0.0102
3487.00,0.0102
3486.00,0.0102
3485.00,0.0102
3484.00,0.0102
3483.00,0.0102
3482.00,0.0102
3481.00,0.0102
3480.00,0.0102
3479.00,0.0102
3478.00,0.0101
3477.00,0.0101
3476.00,0.0101
3475.00,0.0101
3474.00,0.0101
3473.00,0.0101
3472.00,0.0101
3471.00,0.0101
3470.00,0.0101
3469.00,0.0101
3468.00,0.0101
3467.00,0.0101
3466.00,0.0101
3465.00,0.0101
3464.00,0.0102
3463.00,0.0102
3462.00,0.0102
3461.00,0.0102
3460.00,0.0102
3459.00,0.0102
3458.00,0.0102
3457.00,0.0102
3456.00,0.0102
3455.00,0.0102
3454.00,0.0102
3453.00,0.0102
3452.00,0.0102
3451.00,0.0102
3450.00,0.0102
3449.00,0.0102
3448.00,0.0102
3447.00,0.0102
3446.00,0.0102
3445.00,0.0102
3444.00,0.0102
3443.00,0.0102
3442.00,0.0102
3441.00,0.0102
3440.00,0.0102
3439.00,0.0102
3438.00,0.0102
3437.00,0.0102
3436.00,0.0102
3435.00,0.0102
3434.00,0.0102
3433.00,0.0102
3432.00,0.0102
3431.00,0.0102
3430.00,0.0102
3429.00,0.0102
3428.00,0.0103
3427.00,0.0103
3426.00,0.0103
3425.00,0.0104
3424.00,0.0104
3423.00,0.0104
3422.00,0.0104
3421.00,0.0104
3420.00,0.0105
3419.00,0.0105
3418.00,0.0105
3417.00,0.0105
3416.00,0.0105
3415.00,0.0105
3414.00,0.0104
3413.00,0.0104
3412.00,0.0105
3411.00,0.0105
3410.00,0.0106
3409.00,0.0106
3408.00,0.0107
3407.00,0.0107
3406.00,0.0107
3405.00,0.0107
3404.00,0.0106
3403.00,0.0105
3402.00,0.0105
3401.00,0.0105
3400.00,0.0105
3399.00,0.0106
3398.00,0.0107
3397.00,0.0108
3396.00,0.0108
3395.00,0.0108
3394.00,0.0107
3393.00,0.0107
3392.00,0.0107
3391.00,0.0108
3390.00,0.0109
3389.00,0.0109
3388.00,0.0110
3387.00,0.0110
3386.00,0.0111
3385.00,0.0111
3384.00,0.0111
3383.00,0.0111
3382.00,0.0110
3381.00,0.0110
3380.00,0.0110
3379.00,0.0110
3378.00,0.0110
3377.00,0.0110
3376.00,0.0110
3375.00,0.0110
3374.00,0.0110
3373.00,0.0109
3372.00,0.0109
3371.00,0.0108
3370.00,0.0108
3369.00,0.0108
3368.00,0.0108
3367.00,0.0109
3366.00,0.0109
3365.00,0.0110
3364.00,0.0110
3363.00,0.0111
3362.00,0.0111
3361.00,0.0111
3360.00,0.0112
3359.00,0.0112
3358.00,0.0113
3357.00,0.0113
3356.00,0.0114
3355.00,0.0115
3354.00,0.0115
3353.00,0.0116
3352.00,0.0117
3351.00,0.0117
3350.00,0.0118
3349.00,0.0120
3348.00,0.0121
3347.00,0.0123
3346.00,0.0124
3345.00,0.0126
3344.00,0.0127
3343.00,0.0129
3342.00,0.0131
3341.00,0.0133
3340.00,0.0135
3339.00,0.0137
3338.00,0.0140
3337.00,0.0144
3336.00,0.0148
3335.00,0.0152
3334.00,0.0156
3333.00,0.0161
3332.00,0.0165
3331.00,0.0169
3330.00,0.0173
3329.00,0.0177
3328.00,0.0181
3327.00,0.0184
3326.00,0.0187
3325.00,0.0190
3324.00,0.0192
3323.00,0.0194
3322.00,0.0194
3321.00,0.0195
3320.00,0.0194
3319.00,0.0193
3318.00,0.0191
3317.00,0.0189
3316.00,0.0187
3315.00,0.0185
3314.00,0.0182
3313.00,0.0180
3312.00,0.0177
3311.00,0.0174
3310.00,0.0171
3309.00,0.0168
3308.00,0.0166
3307.00,0.0163
3306.00,0.0162
3305.00,0.0162
3304.00,0.0162
3303.00,0.0163
3302.00,0.0164
3301.00,0.0164
3300.00,0.0164
3299.00,0.0163
3298.00,0.0162
3297.00,0.0161
3296.00,0.0160
3295.00,0.0160
3294.00,0.0159
3293.00,0.0159
3292.00,0.0160
3291.00,0.0160
3290.00,0.0161
3289.00,0.0161
3288.00,0.0161
3287.00,0.0160
3286.00,0.0160
3285.00,0.0159
3284.00,0.0158
3283.00,0.0158
3282.00,0.0157
3281.00,0.0156
3280.00,0.0155
3279.00,0.0155
3278.00,0.0154
3277.00,0.0153
3276.00,0.0152
3275.00,0.0152
3274.00,0.0151
3273.00,0.0151
3272.00,0.0150
3271.00,0.0150
3270.00,0.0151
3269.00,0.0152
3268.00,0.0153
3267.00,0.0154
3266.00,0.0154
3265.00,0.0155
3264.00,0.0155
3263.00,0.0155
3262.00,0.0156
3261.00,0.0156
3260.00,0.0156
3259.00,0.0156
3258.00,0.0156
3257.00,0.0156
3256.00,0.0156
3255.00,0.0156
3254.00,0.0156
3253.00,0.0156
3252.00,0.0156
3251.00,0.0156
3250.00,0.0155
3249.00,0.0155
3248.00,0.0154
3247.00,0.0154
3246.00,0.0154
3245.00,0.0154
3244.00,0.0155
3243.00,0.0155
3242.00,0.0155
3241.00,0.0155
3240.00,0.0155
3239.00,0.0155
3238.00,0.0155
3237.00,0.0155
3236.00,0.0155
3235.00,0.0155
3234.00,0.0155
3233.00,0.0155
3232.00,0.0156
3231.00,0.0157
3230.00,0.0157
3229.00,0.0158
3228.00,0.0159
3227.00,0.0159
3226.00,0.0160
3225.00,0.0160
3224.00,0.0161
3223.00,0.0162
3222.00,0.0162
3221.00,0.0163
3220.00,0.0164
3219.00,0.0165
3218.00,0.0166
3217.00,0.0167
3216.00,0.0167
3215.00,0.0168
3214.00,0.0169
3213.00,0.0170
3212.00,0.0171
3211.00,0.0172
3210.00,0.0173
3209.00,0.0174
3208.00,0.0175
3207.00,0.0176
3206.00,0.0176
3205.00,0.0177
3204.00,0.0178
3203.00,0.0178
3202.00,0.0179
3201.00,0.0180
3200.00,0.0180
3199.00,0.0181
3198.00,0.0181
3197.00,0.0182
3196.00,0.0182
3195.00,0.0182
3194.00,0.0182
3193.00,0.0182
3192.00,0.0182
3191.00,0.0183
3190.00,0.0183
3189.00,0.0183
3188.00,0.0184
3187.00,0.0184
3186.00,0.0185
3185.00,0.0185
3184.00,0.0186
3183.00,0.0186
3182.00,0.0186
3181.00,0.0187
3180.00,0.0187
3179.00,0.0188
3178.00,0.0188
3177.00,0.0189
3176.00,0.0190
3175.00,0.0191
3174.00,0.0192
3173.00,0.0192
3172.00,0.0193
3171.00,0.0194
3170.00,0.0195
3169.00,0.0196
3168.00,0.0197
3167.00,0.0198
3166.00,0.0199
3165.00,0.0201
3164.00,0.0201
3163.00,0.0202
3162.00,0.0203
3161.00,0.0203
3160.00,0.0203
3159.00,0.0202
3158.00,0.0202
3157.00,0.0202
3156.00,0.0202
3155.00,0.0201
3154.00,0.0201
3153.00,0.0201
3152.00,0.0201
3151.00,0.0201
3150.00,0.0200
3149.00,0.0200
3148.00,0.0200
3147.00,0.0200
3146.00,0.0200
3145.00,0.0200
3144.00,0.0200
3143.00,0.0200
3142.00,0.0200
3141.00,0.0200
3140.00,0.0200
3139.00,0.0200
3138.00,0.0200
3137.00,0.0201
3136.00,0.0202
3135.00,0.0203
3134.00,0.0204
3133.00,0.0205
3132.00,0.0207
3131.00,0.0208
3130.00,0.0211
3129.00,0.0213
3128.00,0.0217
3127.00,0.0221
3126.00,0.0225
3125.00,0.0229
3124.00,0.0234
3123.00,0.0239
3122.00,0.0243
3121.00,0.0248
3120.00,0.0253
3119.00,0.0258
3118.00,0.0263
3117.00,0.0267
3116.00,0.0271
3115.00,0.0274
3114.00,0.0277
3113.00,0.0279
3112.00,0.0280
3111.00,0.0280
3110.00,0.0279
3109.00,0.0278
3108.00,0.0276
3107.00,0.0274
3106.00,0.0271
3105.00,0.0268
3104.00,0.0264
3103.00,0.0260
3102.00,0.0256
3101.00,0.0252
3100.00,0.0249
3099.00,0.0247
3098.00,0.0244
3097.00,0.0242
3096.00,0.0240
3095.00,0.0238
3094.00,0.0236
3093.00,0.0233
3092.00,0.0231
3091.00,0.0228
3090.00,0.0226
3089.00,0.0224
3088.00,0.0221
3087.00,0.0219
3086.00,0.0216
3085.00,0.0214
3084.00,0.0212
3083.00,0.0210
3082.00,0.0208
3081.00,0.0205
3080.00,0.0203
3079.00,0.0202
3078.00,0.0200
3077.00,0.0199
3076.00,0.0198
3075.00,0.0197
3074.00,0.0196
3073.00,0.0195
3072.00,0.0194
3071.00,0.0193
3070.00,0.0192
3069.00,0.0192
3068.00,0.0191
3067.00,0.0191
3066.00,0.0190
3065.00,0.0190
3064.00,0.0190
3063.00,0.0189
3062.00,0.0189
3061.00,0.0188
3060.00,0.0188
3059.00,0.0187
3058.00,0.0186
3057.00,0.0186
3056.00,0.0185
3055.00,0.0184
3054.00,0.0184
3053.00,0.0183
3052.00,0.0183
3051.00,0.0182
3050.00,0.0182
3049.00,0.0182
3048.00,0.0181
3047.00,0.0181
3046.00,0.0181
3045.00,0.0180
3044.00,0.0180
3043.00,0.0181
3042.00,0.0181
3041.00,0.0182
3040.00,0.0183
3039.00,0.0184
3038.00,0.0184
3037.00,0.0185
3036.00,0.0185
3035.00,0.0184
3034.00,0.0184
3033.00,0.0184
3032.00,0.0184
3031.00,0.0183
3030.00,0.0183
3029.00,0.0182
3028.00,0.0182
3027.00,0.0181
3026.00,0.0180
3025.00,0.0180
3024.00,0.0179
3023.00,0.0179
3022.00,0.0178
3021.00,0.0178
3020.00,0.0178
3019.00,0.0177
3018.00,0.0177
3017.00,0.0177
3016.00,0.0176
3015.00,0.0176
3014.00,0.0176
3013.00,0.0176
3012.00,0.0176
3011.00,0.0176
3010.00,0.0177
3009.00,0.0177
3008.00,0.0177
3007.00,0.0177
3006.00,0.0177
3005.00,0.0177
3004.00,0.0177
3003.00,0.0177
3002.00,0.0176
3001.00,0.0176
3000.00,0.0176
2999.00,0.0176
2998.00,0.0175
2997.00,0.0175
2996.00,0.0174
2995.00,0.0173
2994.00,0.0173
2993.00,0.0173
2992.00,0.0172
2991.00,0.0172
2990.00,0.0172
2989.00,0.0172
2988.00,0.0172
2987.00,0.0172
2986.00,0.0172
2985.00,0.0172
2984.00,0.0172
2983.00,0.0172
2982.00,0.0172
2981.00,0.0172
2980.00,0.0173
2979.00,0.0174
2978.00,0.0174
2977.00,0.0175
2976.00,0.0177
2975.00,0.0178
2974.00,0.0179
2973.00,0.0181
2972.00,0.0183
2971.00,0.0186
2970.00,0.0188
2969.00,0.0191
2968.00,0.0194
2967.00,0.0196
2966.00,0.0199
2965.00,0.0202
2964.00,0.0205
2963.00,0.0207
2962.00,0.0210
2961.00,0.0212
2960.00,0.0214
2959.00,0.0216
2958.00,0.0217
2957.00,0.0218
2956.00,0.0218
2955.00,0.0218
2954.00,0.0217
2953.00,0.0216
2952.00,0.0215
2951.00,0.0214
2950.00,0.0212
2949.00,0.0210
2948.00,0.0207
2947.00,0.0205
2946.00,0.0202
2945.00,0.0199
2944.00,0.0197
2943.00,0.0195
2942.00,0.0193
2941.00,0.0191
2940.00,0.0189
2939.00,0.0187
2938.00,0.0185
2937.00,0.0183
2936.00,0.0182
2935.00,0.0180
2934.00,0.0179
2933.00,0.0177
2932.00,0.0176
2931.00,0.0175
2930.00,0.0173
2929.00,0.0172
2928.00,0.0171
2927.00,0.0170
2926.00,0.0169
2925.00,0.0168
2924.00,0.0167
2923.00,0.0166
2922.00,0.0165
2921.00,0.0164
2920.00,0.0162
2919.00,0.0161
2918.00,0.0160
2917.00,0.0160
2916.00,0.0159
2915.00,0.0158
2914.00,0.0158
2913.00,0.0157
2912.00,0.0157
2911.00,0.0157
2910.00,0.0157
2909.00,0.0157
2908.00,0.0156
2907.00,0.0156
2906.00,0.0156
2905.00,0.0155
2904.00,0.0155
2903.00,0.0155
2902.00,0.0155
2901.00,0.0155
2900.00,0.0155
2899.00,0.0155
2898.00,0.0155
2897.00,0.0155
2896.00,0.0156
2895.00,0.0156
2894.00,0.0157
2893.00,0.0157
2892.00,0.0158
2891.00,0.0158
2890.00,0.0159
2889.00,0.0159
2888.00,0.0160
2887.00,0.0160
2886.00,0.0161
2885.00,0.0161
2884.00,0.0161
2883.00,0.0161
2882.00,0.0161
2881.00,0.0160
2880.00,0.0160
2879.00,0.0159
2878.00,0.0158
2877.00,0.0157
2876.00,0.0156
2875.00,0.0155
2874.00,0.0154
2873.00,0.0153
2872.00,0.0152
2871.00,0.0151
2870.00,0.0151
2869.00,0.0150
2868.00,0.0149
2867.00,0.0148
2866.00,0.0147
2865.00,0.0146
2864.00,0.0145
2863.00,0.0144
2862.00,0.0143
2861.00,0.0142
2860.00,0.0141
2859.00,0.0140
2858.00,0.0139
2857.00,0.0139
2856.00,0.0138
2855.00,0.0138
2854.00,0.0137
2853.00,0.0136
2852.00,0.0136
2851.00,0.0135
2850.00,0.0135
2849.00,0.0135
2848.00,0.0135
2847.00,0.0135
2846.00,0.0135
2845.00,0.0136
2844.00,0.0136
2843.00,0.0136
2842.00,0.0135
2841.00,0.0135
2840.00,0.0135
2839.00,0.0135
2838.00,0.0135
2837.00,0.0135
2836.00,0.0135
2835.00,0.0135
2834.00,0.0134
2833.00,0.0134
2832.00,0.0134
2831.00,0.0134
2830.00,0.0133
2829.00,0.0133
2828.00,0.0133
2827.00,0.0133
2826.00,0.0132
2825.00,0.0132
2824.00,0.0132
2823.00,0.0131
2822.00,0.0131
2821.00,0.0131
2820.00,0.0131
2819.00,0.0131
2818.00,0.0131
2817.00,0.0131
2816.00,0.0131
2815.00,0.0131
2814.00,0.0131
2813.00,0.0131
2812.00,0.0132
2811.00,0.0132
2810.00,0.0132
2809.00,0.0132
2808.00,0.0132
2807.00,0.0133
2806.00,0.0133
2805.00,0.0134
2804.00,0.0134
2803.00,0.0134
2802.00,0.0135
2801.00,0.0135
2800.00,0.0135
2799.00,0.0135
2798.00,0.0136
2797.00,0.0136
2796.00,0.0136
2795.00,0.0136
2794.00,0.0136
2793.00,0.0136
2792.00,0.0136
2791.00,0.0136
2790.00,0.0135
2789.00,0.0135
2788.00,0.0135
2787.00,0.0135
2786.00,0.0134
2785.00,0.0134
2784.00,0.0134
2783.00,0.0133
2782.00,0.0133
2781.00,0.0132
2780.00,0.0132
2779.00,0.0131
2778.00,0.0130
2777.00,0.0130
2776.00,0.0129
2775.00,0.0129
2774.00,0.0128
2773.00,0.0128
2772.00,0.0128
2771.00,0.0127
2770.00,0.0127
2769.00,0.0126
2768.00,0.0126
2767.00,0.0126
2766.00,0.0125
2765.00,0.0125
2764.00,0.0125
2763.00,0.0124
2762.00,0.0124
2761.00,0.0123
2760.00,0.0123
2759.00,0.0123
2758.00,0.0123
2757.00,0.0123
2756.00,0.0123
2755.00,0.0123
2754.00,0.0123
2753.00,0.0122
2752.00,0.0122
2751.00,0.0122
2750.00,0.0122
2749.00,0.0122
2748.00,0.0122
2747.00,0.0122
2746.00,0.0122
2745.00,0.0122
2744.00,0.0122
2743.00,0.0122
2742.00,0.0122
2741.00,0.0122
2740.00,0.0122
2739.00,0.0122
2738.00,0.0122
2737.00,0.0122
2736.00,0.0122
2735.00,0.0123
2734.00,0.0123
2733.00,0.0123
2732.00,0.0123
2731.00,0.0123
2730.00,0.0124
2729.00,0.0124
2728.00,0.0124
2727.00,0.0124
2726.00,0.0124
2725.00,0.0124
2724.00,0.0125
2723.00,0.0125
2722.00,0.0125
2721.00,0.0125
2720.00,0.0126
2719.00,0.0126
2718.00,0.0126
2717.00,0.0126
2716.00,0.0126
2715.00,0.0126
2714.00,0.0125
2713.00,0.0125
2712.00,0.0125
2711.00,0.0125
2710.00,0.0125
2709.00,0.0124
2708.00,0.0124
2707.00,0.0124
2706.00,0.0123
2705.00,0.0123
2704.00,0.0123
2703.00,0.0122
2702.00,0.0122
2701.00,0.0122
2700.00,0.0122
2699.00,0.0122
2698.00,0.0121
2697.00,0.0121
2696.00,0.0121
2695.00,0.0121
2694.00,0.0121
2693.00,0.0121
2692.00,0.0121
2691.00,0.0121
2690.00,0.0121
2689.00,0.0121
2688.00,0.0121
2687.00,0.0121
2686.00,0.0121
2685.00,0.0121
2684.00,0.0121
2683.00,0.0121
2682.00,0.0121
2681.00,0.0121
2680.00,0.0121
2679.00,0.0122
2678.00,0.0122
2677.00,0.0122
2676.00,0.0122
2675.00,0.0123
2674.00,0.0123
2673.00,0.0123
2672.00,0.0123
2671.00,0.0124
2670.00,0.0124
2669.00,0.0124
2668.00,0.0124
2667.00,0.0125
2666.00,0.0124
2665.00,0.0124
2664.00,0.0124
2663.00,0.0124
2662.00,0.0123
2661.00,0.0123
2660.00,0.0122
2659.00,0.0122
2658.00,0.0121
2657.00,0.0121
2656.00,0.0120
2655.00,0.0120
2654.00,0.0119
2653.00,0.0119
2652.00,0.0118
2651.00,0.0118
2650.00,0.0117
2649.00,0.0117
2648.00,0.0117
2647.00,0.0116
2646.00,0.0116
2645.00,0.0116
2644.00,0.0115
2643.00,0.0115
2642.00,0.0115
2641.00,0.0114
2640.00,0.0114
2639.00,0.0114
2638.00,0.0113
2637.00,0.0113
2636.00,0.0113
2635.00,0.0113
2634.00,0.0113
2633.00,0.0113
2632.00,0.0113
2631.00,0.0113
2630.00,0.0112
2629.00,0.0112
2628.00,0.0112
2627.00,0.0113
2626.00,0.0113
2625.00,0.0113
2624.00,0.0113
2623.00,0.0113
2622.00,0.0113
2621.00,0.0113
2620.00,0.0113
2619.00,0.0113
2618.00,0.0113
2617.00,0.0114
2616.00,0.0114
2615.00,0.0114
2614.00,0.0114
2613.00,0.0114
2612.00,0.0114
2611.00,0.0114
2610.00,0.0114
2609.00,0.0114
2608.00,0.0114
2607.00,0.0115
2606.00,0.0115
2605.00,0.0115
2604.00,0.0115
2603.00,0.0115
2602.00,0.0115
2601.00,0.0115
2600.00,0.0115
2599.00,0.0115
2598.00,0.0115
2597.00,0.0116
2596.00,0.0116
2595.00,0.0116
2594.00,0.0116
2593.00,0.0117
2592.00,0.0117
2591.00,0.0117
2590.00,0.0117
2589.00,0.0117
2588.00,0.0117
2587.00,0.0118
2586.00,0.0118
2585.00,0.0118
2584.00,0.0118
2583.00,0.0118
2582.00,0.0119
2581.00,0.0119
2580.00,0.0119
2579.00,0.0119
2578.00,0.0119
2577.00,0.0119
2576.00,0.0119
2575.00,0.0119
2574.00,0.0119
2573.00,0.0119
2572.00,0.0119
2571.00,0.0119
2570.00,0.0119
2569.00,0.0118
2568.00,0.0118
2567.00,0.0118
2566.00,0.0117
2565.00,0.0117
2564.00,0.0116
2563.00,0.0116
2562.00,0.0115
2561.00,0.0115
2560.00,0.0114
2559.00,0.0113
2558.00,0.0113
2557.00,0.0112
2556.00,0.0112
2555.00,0.0112
2554.00,0.0111
2553.00,0.0111
2552.00,0.0110
2551.00,0.0110
2550.00,0.0109
2549.00,0.0109
2548.00,0.0109
2547.00,0.0108
2546.00,0.0108
2545.00,0.0107
2544.00,0.0107
2543.00,0.0107
2542.00,0.0107
2541.00,0.0106
2540.00,0.0106
2539.00,0.0106
2538.00,0.0106
2537.00,0.0106
2536.00,0.0105
2535.00,0.0105
2534.00,0.0105
2533.00,0.0104
2532.00,0.0104
2531.00,0.0105
2530.00,0.0105
2529.00,0.0105
2528.00,0.0105
2527.00,0.0105
2526.00,0.0104
2525.00,0.0104
2524.00,0.0104
2523.00,0.0104
2522.00,0.0103
2521.00,0.0103
2520.00,0.0104
2519.00,0.0104
2518.00,0.0104
2517.00,0.0104
2516.00,0.0104
2515.00,0.0104
2514.00,0.0103
2513.00,0.0103
2512.00,0.0103
2511.00,0.0104
2510.00,0.0104
2509.00,0.0104
2508.00,0.0104
2507.00,0.0104
2506.00,0.0104
2505.00,0.0104
2504.00,0.0104
2503.00,0.0105
2502.00,0.0105
2501.00,0.0105
2500.00,0.0106
2499.00,0.0106
2498.00,0.0107
2497.00,0.0107
2496.00,0.0107
2495.00,0.0108
2494.00,0.0108
2493.00,0.0107
2492.00,0.0107
2491.00,0.0107
2490.00,0.0106
2489.00,0.0106
2488.00,0.0106
2487.00,0.0106
2486.00,0.0106
2485.00,0.0106
2484.00,0.0106
2483.00,0.0106
2482.00,0.0105
2481.00,0.0105
2480.00,0.0105
2479.00,0.0105
2478.00,0.0105
2477.00,0.0105
2476.00,0.0105
2475.00,0.0105
2474.00,0.0105
2473.00,0.0105
2472.00,0.0104
2471.00,0.0104
2470.00,0.0104
2469.00,0.0104
2468.00,0.0105
2467.00,0.0105
2466.00,0.0104
2465.00,0.0104
2464.00,0.0104
2463.00,0.0103
2462.00,0.0103
2461.00,0.0103
2460.00,0.0103
2459.00,0.0103
2458.00,0.0103
2457.00,0.0103
2456.00,0.0103
2455.00,0.0103
2454.00,0.0103
2453.00,0.0103
2452.00,0.0103
2451.00,0.0102
2450.00,0.0102
2449.00,0.0102
2448.00,0.0102
2447.00,0.0102
2446.00,0.0101
2445.00,0.0101
2444.00,0.0101
2443.00,0.0100
2442.00,0.0100
2441.00,0.0099
2440.00,0.0099
2439.00,0.0099
2438.00,0.0099
2437.00,0.0099
2436.00,0.0099
2435.00,0.0099
2434.00,0.0099
2433.00,0.0099
2432.00,0.0099
2431.00,0.0099
2430.00,0.0099
2429.00,0.0099
2428.00,0.0099
2427.00,0.0099
2426.00,0.0098
2425.00,0.0098
2424.00,0.0098
2423.00,0.0098
2422.00,0.0098
2421.00,0.0097
2420.00,0.0097
2419.00,0.0097
2418.00,0.0096
2417.00,0.0096
2416.00,0.0096
2415.00,0.0096
2414.00,0.0097
2413.00,0.0097
2412.00,0.0097
2411.00,0.0097
2410.00,0.0096
2409.00,0.0096
2408.00,0.0096
2407.00,0.0096
2406.00,0.0096
2405.00,0.0096
2404.00,0.0096
2403.00,0.0096
2402.00,0.0096
2401.00,0.0096
2400.00,0.0096
2399.00,0.0096
2398.00,0.0096
2397.00,0.0096
2396.00,0.0096
2395.00,0.0096
2394.00,0.0095
2393.00,0.0095
2392.00,0.0095
2391.00,0.0095
2390.00,0.0095
2389.00,0.0094
2388.00,0.0094
2387.00,0.0094
2386.00,0.0094
2385.00,0.0094
2384.00,0.0094
2383.00,0.0094
2382.00,0.0094
2381.00,0.0094
2380.00,0.0093
2379.00,0.0093
2378.00,0.0093
2377.00,0.0093
2376.00,0.0093
2375.00,0.0092
2374.00,0.0092
2373.00,0.0093
2372.00,0.0093
2371.00,0.0093
2370.00,0.0093
2369.00,0.0093
2368.00,0.0092
2367.00,0.0092
2366.00,0.0092
2365.00,0.0092
2364.00,0.0093
2363.00,0.0092
2362.00,0.0092
2361.00,0.0092
2360.00,0.0092
2359.00,0.0092
2358.00,0.0092
2357.00,0.0091
2356.00,0.0092
2355.00,0.0092
2354.00,0.0092
2353.00,0.0093
2352.00,0.0093
2351.00,0.0092
2350.00,0.0092
2349.00,0.0091
2348.00,0.0091
2347.00,0.0092
2346.00,0.0092
2345.00,0.0092
2344.00,0.0092
2343.00,0.0091
2342.00,0.0091
2341.00,0.0090
2340.00,0.0090
2339.00,0.0090
2338.00,0.0090
2337.00,0.0090
2336.00,0.0090
2335.00,0.0090
2334.00,0.0090
2333.00,0.0090
2332.00,0.0090
2331.00,0.0090
2330.00,0.0090
2329.00,0.0090
2328.00,0.0091
2327.00,0.0092
2326.00,0.0092
2325.00,0.0091
2324.00,0.0091
2323.00,0.0090
2322.00,0.0089
2321.00,0.0089
2320.00,0.0089
2319.00,0.0089
2318.00,0.0089
2317.00,0.0089
2316.00,0.0089
2315.00,0.0089
2314.00,0.0089
2313.00,0.0089
2312.00,0.0089
2311.00,0.0089
2310.00,0.0089
2309.00,0.0088
2308.00,0.0088
2307.00,0.0088
2306.00,0.0088
2305.00,0.0088
2304.00,0.0088
2303.00,0.0088
2302.00,0.0088
2301.00,0.0088
2300.00,0.0088
2299.00,0.0087
2298.00,0.0087
2297.00,0.0087
2296.00,0.0087
2295.00,0.0088
2294.00,0.0088
2293.00,0.0088
2292.00,0.0088
2291.00,0.0087
2290.00,0.0087
2289.00,0.0087
2288.00,0.0087
2287.00,0.0087
2286.00,0.0086
2285.00,0.0086
2284.00,0.0086
2283.00,0.0085
2282.00,0.0085
2281.00,0.0085
2280.00,0.0085
2279.00,0.0085
2278.00,0.0085
2277.00,0.0085
2276.00,0.0085
2275.00,0.0085
2274.00,0.0085
2273.00,0.0085
2272.00,0.0085
2271.00,0.0085
2270.00,0.0085
2269.00,0.0085
2268.00,0.0085
2267.00,0.0085
2266.00,0.0084
2265.00,0.0084
2264.00,0.0085
2263.00,0.0085
2262.00,0.0085
2261.00,0.0085
2260.00,0.0086
2259.00,0.0085
2258.00,0.0085
2257.00,0.0084
2256.00,0.0084
2255.00,0.0085
2254.00,0.0085
2253.00,0.0085
2252.00,0.0085
2251.00,0.0085
2250.00,0.0085
2249.00,0.0085
2248.00,0.0085
2247.00,0.0085
2246.00,0.0084
2245.00,0.0084
2244.00,0.0083
2243.00,0.0083
2242.00,0.0083
2241.00,0.0083
2240.00,0.0084
2239.00,0.0084
2238.00,0.0083
2237.00,0.0082
2236.00,0.0082
2235.00,0.0082
2234.00,0.0082
2233.00,0.0082
2232.00,0.0082
2231.00,0.0082
2230.00,0.0081
2229.00,0.0081
2228.00,0.0080
2227.00,0.0080
2226.00,0.0080
2225.00,0.0080
2224.00,0.0080
2223.00,0.0079
2222.00,0.0079
2221.00,0.0079
2220.00,0.0079
2219.00,0.0080
2218.00,0.0081
2217.00,0.0082
2216.00,0.0082
2215.00,0.0082
2214.00,0.0081
2213.00,0.0081
2212.00,0.0081
2211.00,0.0081
2210.00,0.0081
2209.00,0.0080
2208.00,0.0081
2207.00,0.0081
2206.00,0.0081
2205.00,0.0081
2204.00,0.0081
2203.00,0.0080
2202.00,0.0079
2201.00,0.0079
2200.00,0.0079
2199.00,0.0080
2198.00,0.0081
2197.00,0.0082
2196.00,0.0082
2195.00,0.0082
2194.00,0.0082
2193.00,0.0082
2192.00,0.0082
2191.00,0.0081
2190.00,0.0080
2189.00,0.0080
2188.00,0.0079
2187.00,0.0079
2186.00,0.0079
2185.00,0.0080
2184.00,0.0080
2183.00,0.0079
2182.00,0.0079
2181.00,0.0079
2180.00,0.0079
2179.00,0.0078
2178.00,0.0077
2177.00,0.0077
2176.00,0.0077
2175.00,0.0078
2174.00,0.0079
2173.00,0.0079
2172.00,0.0080
2171.00,0.0079
2170.00,0.0079
2169.00,0.0078
2168.00,0.0079
2167.00,0.0079
2166.00,0.0079
2165.00,0.0078
2164.00,0.0078
2163.00,0.0077
2162.00,0.0075
2161.00,0.0071
2160.00,0.0068
2159.00,0.0066
2158.00,0.0066
2157.00,0.0069
2156.00,0.0071
2155.00,0.0073
2154.00,0.0073
2153.00,0.0074
2152.00,0.0074
2151.00,0.0074
2150.00,0.0074
2149.00,0.0074
2148.00,0.0074
2147.00,0.0074
2146.00,0.0073
2145.00,0.0073
2144.00,0.0073
2143.00,0.0072
2142.00,0.0071
2141.00,0.0071
2140.00,0.0072
2139.00,0.0072
2138.00,0.0071
2137.00,0.0071
2136.00,0.0070
2135.00,0.0070
2134.00,0.0071
2133.00,0.0072
2132.00,0.0072
2131.00,0.0072
2130.00,0.0072
2129.00,0.0072
2128.00,0.0072
2127.00,0.0072
2126.00,0.0071
2125.00,0.0071
2124.00,0.0071
2123.00,0.0071
2122.00,0.0071
2121.00,0.0071
2120.00,0.0072
2119.00,0.0072
2118.00,0.0072
2117.00,0.0073
2116.00,0.0073
2115.00,0.0073
2114.00,0.0072
2113.00,0.0071
2112.00,0.0071
2111.00,0.0071
2110.00,0.0071
2109.00,0.0071
2108.00,0.0071
2107.00,0.0071
2106.00,0.0071
2105.00,0.0071
2104.00,0.0071
2103.00,0.0071
2102.00,0.0070
2101.00,0.0070
2100.00,0.0069
2099.00,0.0069
2098.00,0.0068
2097.00,0.0068
2096.00,0.0068
2095.00,0.0069
2094.00,0.0069
2093.00,0.0069
2092.00,0.0069
2091.00,0.0069
2090.00,0.0069
2089.00,0.0069
2088.00,0.0070
2087.00,0.0070
2086.00,0.0070
2085.00,0.0070
2084.00,0.0070
2083.00,0.0070
2082.00,0.0070
2081.00,0.0069
2080.00,0.0069
2079.00,0.0069
2078.00,0.0068
2077.00,0.0068
2076.00,0.0067
2075.00,0.0067
2074.00,0.0066
2073.00,0.0066
2072.00,0.0066
2071.00,0.0066
2070.00,0.0065
2069.00,0.0065
2068.00,0.0065
2067.00,0.0064
2066.00,0.0063
2065.00,0.0063
2064.00,0.0063
2063.00,0.0063
2062.00,0.0062
2061.00,0.0062
2060.00,0.0063
2059.00,0.0063
2058.00,0.0062
2057.00,0.0061
2056.00,0.0060
2055.00,0.0061
2054.00,0.0062
2053.00,0.0063
2052.00,0.0064
2051.00,0.0063
2050.00,0.0061
2049.00,0.0060
2048.00,0.0061
2047.00,0.0061
2046.00,0.0061
2045.00,0.0061
2044.00,0.0061
2043.00,0.0061
2042.00,0.0060
2041.00,0.0059
2040.00,0.0060
2039.00,0.0061
2038.00,0.0061
2037.00,0.0060
2036.00,0.0060
2035.00,0.0059
2034.00,0.0058
2033.00,0.0059
2032.00,0.0060
2031.00,0.0061
2030.00,0.0061
2029.00,0.0062
2028.00,0.0063
2027.00,0.0063
2026.00,0.0061
2025.00,0.0060
2024.00,0.0060
2023.00,0.0059
2022.00,0.0058
2021.00,0.0059
2020.00,0.0061
2019.00,0.0061
2018.00,0.0060
2017.00,0.0060
2016.00,0.0060
2015.00,0.0060
2014.00,0.0060
2013.00,0.0059
2012.00,0.0060
2011.00,0.0059
2010.00,0.0059
2009.00,0.0058
2008.00,0.0057
2007.00,0.0056
2006.00,0.0055
2005.00,0.0056
2004.00,0.0059
2003.00,0.0060
2002.00,0.0060
2001.00,0.0060
2000.00,0.0061
1999.00,0.0061
1998.00,0.0061
1997.00,0.0062
1996.00,0.0063
1995.00,0.0063
1994.00,0.0061
1993.00,0.0061
1992.00,0.0061
1991.00,0.0062
1990.00,0.0062
1989.00,0.0062
1988.00,0.0062
1987.00,0.0062
1986.00,0.0061
1985.00,0.0061
1984.00,0.0062
1983.00,0.0063
1982.00,0.0063
1981.00,0.0062
1980.00,0.0061
1979.00,0.0059
1978.00,0.0056
1977.00,0.0055
1976.00,0.0055
1975.00,0.0056
1974.00,0.0055
1973.00,0.0055
1972.00,0.0056
1971.00,0.0057
1970.00,0.0056
1969.00,0.0056
1968.00,0.0057
1967.00,0.0057
1966.00,0.0057
1965.00,0.0056
1964.00,0.0055
1963.00,0.0054
1962.00,0.0053
1961.00,0.0052
1960.00,0.0053
1959.00,0.0053
1958.00,0.0053
1957.00,0.0053
1956.00,0.0053
1955.00,0.0053
1954.00,0.0052
1953.00,0.0052
1952.00,0.0051
1951.00,0.0051
1950.00,0.0051
1949.00,0.0051
1948.00,0.0051
1947.00,0.0052
1946.00,0.0051
1945.00,0.0051
1944.00,0.0050
1943.00,0.0050
1942.00,0.0049
1941.00,0.0050
1940.00,0.0050
1939.00,0.0050
1938.00,0.0050
1937.00,0.0050
1936.00,0.0051
1935.00,0.0052
1934.00,0.0052
1933.00,0.0052
1932.00,0.0052
1931.00,0.0052
1930.00,0.0051
1929.00,0.0052
1928.00,0.0052
1927.00,0.0052
1926.00,0.0052
1925.00,0.0051
1924.00,0.0052
1923.00,0.0052
1922.00,0.0052
1921.00,0.0052
1920.00,0.0052
1919.00,0.0051
1918.00,0.0051
1917.00,0.0051
1916.00,0.0052
1915.00,0.0051
1914.00,0.0050
1913.00,0.0050
1912.00,0.0052
1911.00,0.0053
1910.00,0.0053
1909.00,0.0054
1908.00,0.0055
1907.00,0.0056
1906.00,0.0055
1905.00,0.0056
1904.00,0.0056
1903.00,0.0056
1902.00,0.0056
1901.00,0.0056
1900.00,0.0055
1899.00,0.0055
1898.00,0.0054
1897.00,0.0053
1896.00,0.0052
1895.00,0.0052
1894.00,0.0051
1893.00,0.0051
1892.00,0.0051
1891.00,0.0050
1890.00,0.0050
1889.00,0.0050
1888.00,0.0051
1887.00,0.0051
1886.00,0.0050
1885.00,0.0050
1884.00,0.0050
1883.00,0.0051
1882.00,0.0052
1881.00,0.0053
1880.00,0.0053
1879.00,0.0054
1878.00,0.0054
1877.00,0.0054
1876.00,0.0054
1875.00,0.0054
1874.00,0.0054
1873.00,0.0054
1872.00,0.0054
1871.00,0.0053
1870.00,0.0053
1869.00,0.0053
1868.00,0.0054
1867.00,0.0054
1866.00,0.0053
1865.00,0.0052
1864.00,0.0051
1863.00,0.0051
1862.00,0.0051
1861.00,0.0052
1860.00,0.0053
1859.00,0.0053
1858.00,0.0053
1857.00,0.0053
1856.00,0.0054
1855.00,0.0054
1854.00,0.0054
1853.00,0.0054
1852.00,0.0054
1851.00,0.0054
1850.00,0.0054
1849.00,0.0053
1848.00,0.0053
1847.00,0.0051
1846.00,0.0049
1845.00,0.0047
1844.00,0.0047
1843.00,0.0047
1842.00,0.0046
1841.00,0.0045
1840.00,0.0045
1839.00,0.0047
1838.00,0.0048
1837.00,0.0050
1836.00,0.0050
1835.00,0.0050
1834.00,0.0050
1833.00,0.0049
1832.00,0.0049
1831.00,0.0049
1830.00,0.0050
1829.00,0.0053
1828.00,0.0054
1827.00,0.0053
1826.00,0.0051
1825.00,0.0050
1824.00,0.0051
1823.00,0.0052
1822.00,0.0050
1821.00,0.0048
1820.00,0.0047
1819.00,0.0047
1818.00,0.0047
1817.00,0.0047
1816.00,0.0047
1815.00,0.0047
1814.00,0.0046
1813.00,0.0046
1812.00,0.0046
1811.00,0.0047
1810.00,0.0047
1809.00,0.0048
1808.00,0.0048
1807.00,0.0047
1806.00,0.0046
1805.00,0.0045
1804.00,0.0045
1803.00,0.0045
1802.00,0.0045
1801.00,0.0044
1800.00,0.0045
1799.00,0.0045
1798.00,0.0044
1797.00,0.0043
1796.00,0.0042
1795.00,0.0041
1794.00,0.0039
1793.00,0.0038
1792.00,0.0039
1791.00,0.0039
1790.00,0.0039
1789.00,0.0038
1788.00,0.0038
1787.00,0.0039
1786.00,0.0040
1785.00,0.0041
1784.00,0.0043
1783.00,0.0044
1782.00,0.0044
1781.00,0.0045
1780.00,0.0048
1779.00,0.0050
1778.00,0.0051
1777.00,0.0051
1776.00,0.0052
1775.00,0.0053
1774.00,0.0052
1773.00,0.0051
1772.00,0.0051
1771.00,0.0053
1770.00,0.0053
1769.00,0.0053
1768.00,0.0054
1767.00,0.0054
1766.00,0.0055
1765.00,0.0054
1764.00,0.0053
1763.00,0.0053
1762.00,0.0053
1761.00,0.0053
1760.00,0.0052
1759.00,0.0050
1758.00,0.0048
1757.00,0.0048
1756.00,0.0050
1755.00,0.0050
1754.00,0.0049
1753.00,0.0046
1752.00,0.0045
1751.00,0.0044
1750.00,0.0043
1749.00,0.0044
1748.00,0.0046
1747.00,0.0049
1746.00,0.0051
1745.00,0.0052
1744.00,0.0053
1743.00,0.0055
1742.00,0.0056
1741.00,0.0058
1740.00,0.0062
1739.00,0.0068
1738.00,0.0073
1737.00,0.0076
1736.00,0.0080
1735.00,0.0085
1734.00,0.0094
1733.00,0.0105
1732.00,0.0114
1731.00,0.0121
1730.00,0.0132
1729.00,0.0145
1728.00,0.0155
1727.00,0.0159
1726.00,0.0159
1725.00,0.0159
1724.00,0.0162
1723.00,0.0166
1722.00,0.0170
1721.00,0.0176
1720.00,0.0185
1719.00,0.0197
1718.00,0.0215
1717.00,0.0241
1716.00,0.0271
1715.00,0.0308
1714.00,0.0354
1713.00,0.0408
1712.00,0.0466
1711.00,0.0524
1710.00,0.0580
1709.00,0.0635
1708.00,0.0688
1707.00,0.0743
1706.00,0.0803
1705.00,0.0867
1704.00,0.0925
1703.00,0.0975
1702.00,0.1024
1701.00,0.1082
1700.00,0.1145
1699.00,0.1200
1698.00,0.1235
1697.00,0.1253
1696.00,0.1261
1695.00,0.1263
1694.00,0.1259
1693.00,0.1250
1692.00,0.1233
1691.00,0.1202
1690.00,0.1150
1689.00,0.1076
1688.00,0.0992
1687.00,0.0907
1686.00,0.0815
1685.00,0.0707
1684.00,0.0597
1683.00,0.0519
1682.00,0.0476
1681.00,0.0451
1680.00,0.0436
1679.00,0.0429
1678.00,0.0430
1677.00,0.0440
1676.00,0.0463
1675.00,0.0503
1674.00,0.0553
1673.00,0.0605
1672.00,0.0660
1671.00,0.0725
1670.00,0.0803
1669.00,0.0884
1668.00,0.0956
1667.00,0.1018
1666.00,0.1073
1665.00,0.1127
1664.00,0.1185
1663.00,0.1247
1662.00,0.1308
1661.00,0.1363
1660.00,0.1413
1659.00,0.1460
1658.00,0.1505
1657.00,0.1547
1656.00,0.1583
1655.00,0.1611
1654.00,0.1625
1653.00,0.1626
1652.00,0.1625
1651.00,0.1630
1650.00,0.1643
1649.00,0.1667
1648.00,0.1691
1647.00,0.1701
1646.00,0.1694
1645.00,0.1676
1644.00,0.1654
1643.00,0.1629
1642.00,0.1599
1641.00,0.1561
1640.00,0.1514
1639.00,0.1464
1638.00,0.1408
1637.00,0.1339
1636.00,0.1253
1635.00,0.1166
1634.00,0.1095
1633.00,0.1040
1632.00,0.0996
1631.00,0.0958
1630.00,0.0921
1629.00,0.0884
1628.00,0.0850
1627.00,0.0821
1626.00,0.0796
1625.00,0.0771
1624.00,0.0744
1623.00,0.0716
1622.00,0.0691
1621.00,0.0669
1620.00,0.0649
1619.00,0.0633
1618.00,0.0619
1617.00,0.0608
1616.00,0.0603
1615.00,0.0605
1614.00,0.0612
1613.00,0.0622
1612.00,0.0633
1611.00,0.0639
1610.00,0.0638
1609.00,0.0630
1608.00,0.0619
1607.00,0.0607
1606.00,0.0598
1605.00,0.0593
1604.00,0.0594
1603.00,0.0598
1602.00,0.0604
1601.00,0.0607
1600.00,0.0606
1599.00,0.0599
1598.00,0.0587
1597.00,0.0569
1596.00,0.0544
1595.00,0.0516
1594.00,0.0486
1593.00,0.0454
1592.00,0.0423
1591.00,0.0394
1590.00,0.0369
1589.00,0.0348
1588.00,0.0330
1587.00,0.0315
1586.00,0.0303
1585.00,0.0293
1584.00,0.0284
1583.00,0.0278
1582.00,0.0274
1581.00,0.0272
1580.00,0.0272
1579.00,0.0273
1578.00,0.0276
1577.00,0.0283
1576.00,0.0293
1575.00,0.0308
1574.00,0.0327
1573.00,0.0349
1572.00,0.0374
1571.00,0.0403
1570.00,0.0434
1569.00,0.0464
1568.00,0.0488
1567.00,0.0506
1566.00,0.0522
1565.00,0.0539
1564.00,0.0555
1563.00,0.0567
1562.00,0.0575
1561.00,0.0579
1560.00,0.0586
1559.00,0.0607
1558.00,0.0639
1557.00,0.0670
1556.00,0.0700
1555.00,0.0740
1554.00,0.0791
1553.00,0.0841
1552.00,0.0884
1551.00,0.0919
1550.00,0.0947
1549.00,0.0964
1548.00,0.0969
1547.00,0.0961
1546.00,0.0942
1545.00,0.0912
1544.00,0.0877
1543.00,0.0837
1542.00,0.0790
1541.00,0.0733
1540.00,0.0666
1539.00,0.0603
1538.00,0.0553
1537.00,0.0518
1536.00,0.0494
1535.00,0.0474
1534.00,0.0449
1533.00,0.0423
1532.00,0.0401
1531.00,0.0381
1530.00,0.0364
1529.00,0.0350
1528.00,0.0340
1527.00,0.0332
1526.00,0.0325
1525.00,0.0319
1524.00,0.0315
1523.00,0.0312
1522.00,0.0314
1521.00,0.0323
1520.00,0.0338
1519.00,0.0358
1518.00,0.0384
1517.00,0.0416
1516.00,0.0444
1515.00,0.0461
1514.00,0.0467
1513.00,0.0469
1512.00,0.0474
1511.00,0.0484
1510.00,0.0499
1509.00,0.0519
1508.00,0.0542
1507.00,0.0567
1506.00,0.0584
1505.00,0.0589
1504.00,0.0589
1503.00,0.0590
1502.00,0.0598
1501.00,0.0608
1500.00,0.0617
1499.00,0.0625
1498.00,0.0634
1497.00,0.0645
1496.00,0.0659
1495.00,0.0675
1494.00,0.0694
1493.00,0.0716
1492.00,0.0742
1491.00,0.0770
1490.00,0.0797
1489.00,0.0822
1488.00,0.0841
1487.00,0.0854
1486.00,0.0865
1485.00,0.0871
1484.00,0.0874
1483.00,0.0874
1482.00,0.0872
1481.00,0.0867
1480.00,0.0859
1479.00,0.0848
1478.00,0.0834
1477.00,0.0816
1476.00,0.0797
1475.00,0.0775
1474.00,0.0750
1473.00,0.0721
1472.00,0.0692
1471.00,0.0668
1470.00,0.0650
1469.00,0.0637
1468.00,0.0627
1467.00,0.0620
1466.00,0.0616
1465.00,0.0617
1464.00,0.0624
1463.00,0.0635
1462.00,0.0650
1461.00,0.0668
1460.00,0.0687
1459.00,0.0707
1458.00,0.0724
1457.00,0.0737
1456.00,0.0745
1455.00,0.0749
1454.00,0.0754
1453.00,0.0762
1452.00,0.0772
1451.00,0.0779
1450.00,0.0784
1449.00,0.0791
1448.00,0.0800
1447.00,0.0809
1446.00,0.0819
1445.00,0.0828
1444.00,0.0836
1443.00,0.0843
1442.00,0.0849
1441.00,0.0855
1440.00,0.0859
1439.00,0.0862
1438.00,0.0866
1437.00,0.0872
1436.00,0.0883
1435.00,0.0898
1434.00,0.0918
1433.00,0.0941
1432.00,0.0965
1431.00,0.0983
1430.00,0.0991
1429.00,0.0986
1428.00,0.0969
1427.00,0.0940
1426.00,0.0904
1425.00,0.0861
1424.00,0.0816
1423.00,0.0772
1422.00,0.0732
1421.00,0.0694
1420.00,0.0656
1419.00,0.0620
1418.00,0.0592
1417.00,0.0573
1416.00,0.0559
1415.00,0.0550
1414.00,0.0542
1413.00,0.0535
1412.00,0.0530
1411.00,0.0528
1410.00,0.0530
1409.00,0.0535
1408.00,0.0541
1407.00,0.0548
1406.00,0.0554
1405.00,0.0559
1404.00,0.0561
1403.00,0.0559
1402.00,0.0554
1401.00,0.0548
1400.00,0.0539
1399.00,0.0528
1398.00,0.0516
1397.00,0.0502
1396.00,0.0485
1395.00,0.0469
1394.00,0.0455
1393.00,0.0443
1392.00,0.0434
1391.00,0.0427
1390.00,0.0421
1389.00,0.0415
1388.00,0.0408
1387.00,0.0401
1386.00,0.0396
1385.00,0.0394
1384.00,0.0394
1383.00,0.0398
1382.00,0.0404
1381.00,0.0411
1380.00,0.0419
1379.00,0.0427
1378.00,0.0435
1377.00,0.0443
1376.00,0.0449
1375.00,0.0456
1374.00,0.0462
1373.00,0.0468
1372.00,0.0473
1371.00,0.0479
1370.00,0.0486
1369.00,0.0496
1368.00,0.0508
1367.00,0.0526
1366.00,0.0548
1365.00,0.0577
1364.00,0.0613
1363.00,0.0656
1362.00,0.0698
1361.00,0.0731
1360.00,0.0752
1359.00,0.0758
1358.00,0.0751
1357.00,0.0729
1356.00,0.0697
1355.00,0.0656
1354.00,0.0612
1353.00,0.0568
1352.00,0.0527
1351.00,0.0490
1350.00,0.0457
1349.00,0.0429
1348.00,0.0403
1347.00,0.0381
1346.00,0.0362
1345.00,0.0346
1344.00,0.0331
1343.00,0.0320
1342.00,0.0310
1341.00,0.0302
1340.00,0.0296
1339.00,0.0292
1338.00,0.0290
1337.00,0.0292
1336.00,0.0296
1335.00,0.0305
1334.00,0.0320
1333.00,0.0340
1332.00,0.0364
1331.00,0.0392
1330.00,0.0420
1329.00,0.0443
1328.00,0.0459
1327.00,0.0465
1326.00,0.0462
1325.00,0.0452
1324.00,0.0436
1323.00,0.0418
1322.00,0.0399
1321.00,0.0380
1320.00,0.0362
1319.00,0.0345
1318.00,0.0329
1317.00,0.0315
1316.00,0.0302
1315.00,0.0291
1314.00,0.0282
1313.00,0.0273
1312.00,0.0265
1311.00,0.0259
1310.00,0.0253
1309.00,0.0249
1308.00,0.0245
1307.00,0.0242
1306.00,0.0241
1305.00,0.0240
1304.00,0.0240
1303.00,0.0240
1302.00,0.0241
1301.00,0.0241
1300.00,0.0243
1299.00,0.0245
1298.00,0.0250
1297.00,0.0259
1296.00,0.0271
1295.00,0.0288
1294.00,0.0311
1293.00,0.0339
1292.00,0.0371
1291.00,0.0406
1290.00,0.0441
1289.00,0.0472
1288.00,0.0497
1287.00,0.0513
1286.00,0.0521
1285.00,0.0519
1284.00,0.0507
1283.00,0.0489
1282.00,0.0464
1281.00,0.0434
1280.00,0.0402
1279.00,0.0369
1278.00,0.0338
1277.00,0.0311
1276.00,0.0288
1275.00,0.0269
1274.00,0.0254
1273.00,0.0242
1272.00,0.0233
1271.00,0.0226
1270.00,0.0223
1269.00,0.0223
1268.00,0.0228
1267.00,0.0240
1266.00,0.0260
1265.00,0.0290
1264.00,0.0327
1263.00,0.0370
1262.00,0.0412
1261.00,0.0447
1260.00,0.0472
1259.00,0.0483
1258.00,0.0483
1257.00,0.0475
1256.00,0.0464
1255.00,0.0454
1254.00,0.0447
1253.00,0.0446
1252.00,0.0449
1251.00,0.0460
1250.00,0.0477
1249.00,0.0504
1248.00,0.0540
1247.00,0.0588
1246.00,0.0647
1245.00,0.0716
1244.00,0.0790
1243.00,0.0862
1242.00,0.0925
1241.00,0.0975
1240.00,0.1007
1239.00,0.1021
1238.00,0.1020
1237.00,0.1006
1236.00,0.0986
1235.00,0.0963
1234.00,0.0945
1233.00,0.0933
1232.00,0.0930
1231.00,0.0935
1230.00,0.0946
1229.00,0.0958
1228.00,0.0967
1227.00,0.0969
1226.00,0.0963
1225.00,0.0946
1224.00,0.0921
1223.00,0.0889
1222.00,0.0854
1221.00,0.0819
1220.00,0.0786
1219.00,0.0759
1218.00,0.0739
1217.00,0.0725
1216.00,0.0717
1215.00,0.0712
1214.00,0.0706
1213.00,0.0697
1212.00,0.0683
1211.00,0.0664
1210.00,0.0640
1209.00,0.0614
1208.00,0.0587
1207.00,0.0560
1206.00,0.0535
1205.00,0.0512
1204.00,0.0492
1203.00,0.0475
1202.00,0.0461
1201.00,0.0452
1200.00,0.0445
1199.00,0.0443
1198.00,0.0445
1197.00,0.0451
1196.00,0.0461
1195.00,0.0473
1194.00,0.0486
1193.00,0.0497
1192.00,0.0506
1191.00,0.0511
1190.00,0.0512
1189.00,0.0509
1188.00,0.0504
1187.00,0.0496
1186.00,0.0485
1185.00,0.0471
1184.00,0.0453
1183.00,0.0433
1182.00,0.0411
1181.00,0.0389
1180.00,0.0368
1179.00,0.0351
1178.00,0.0337
1177.00,0.0329
1176.00,0.0330
1175.00,0.0343
1174.00,0.0364
1173.00,0.0385
1172.00,0.0394
1171.00,0.0388
1170.00,0.0369
1169.00,0.0347
1168.00,0.0326
1167.00,0.0311
1166.00,0.0300
1165.00,0.0291
1164.00,0.0284
1163.00,0.0278
1162.00,0.0273
1161.00,0.0269
1160.00,0.0265
1159.00,0.0261
1158.00,0.0258
1157.00,0.0255
1156.00,0.0252
1155.00,0.0250
1154.00,0.0247
1153.00,0.0245
1152.00,0.0242
1151.00,0.0240
1150.00,0.0238
1149.00,0.0236
1148.00,0.0234
1147.00,0.0232
1146.00,0.0231
1145.00,0.0229
1144.00,0.0228
1143.00,0.0227
1142.00,0.0226
1141.00,0.0226
1140.00,0.0225
1139.00,0.0224
1138.00,0.0224
1137.00,0.0224
1136.00,0.0224
1135.00,0.0224
1134.00,0.0224
1133.00,0.0225
1132.00,0.0224
1131.00,0.0225
1130.00,0.0225
1129.00,0.0225
1128.00,0.0225
1127.00,0.0225
1126.00,0.0226
1125.00,0.0226
1124.00,0.0225
1123.00,0.0224
1122.00,0.0222
1121.00,0.0220
1120.00,0.0216
1119.00,0.0213
1118.00,0.0212
1117.00,0.0211
1116.00,0.0211
1115.00,0.0213
1114.00,0.0218
1113.00,0.0226
1112.00,0.0238
1111.00,0.0253
1110.00,0.0269
1109.00,0.0281
1108.00,0.0287
1107.00,0.0285
1106.00,0.0277
1105.00,0.0264
1104.00,0.0249
1103.00,0.0237
1102.00,0.0226
1101.00,0.0218
1100.00,0.0211
1099.00,0.0205
1098.00,0.0201
1097.00,0.0198
1096.00,0.0195
1095.00,0.0192
1094.00,0.0191
1093.00,0.0190
1092.00,0.0189
1091.00,0.0188
1090.00,0.0189
1089.00,0.0190
1088.00,0.0190
1087.00,0.0192
1086.00,0.0194
1085.00,0.0197
1084.00,0.0199
1083.00,0.0202
1082.00,0.0206
1081.00,0.0210
1080.00,0.0213
1079.00,0.0215
1078.00,0.0219
1077.00,0.0222
1076.00,0.0224
1075.00,0.0226
1074.00,0.0228
1073.00,0.0229
1072.00,0.0228
1071.00,0.0226
1070.00,0.0225
1069.00,0.0223
1068.00,0.0220
1067.00,0.0217
1066.00,0.0213
1065.00,0.0209
1064.00,0.0204
1063.00,0.0199
1062.00,0.0194
1061.00,0.0190
1060.00,0.0186
1059.00,0.0183
1058.00,0.0180
1057.00,0.0178
1056.00,0.0176
1055.00,0.0174
1054.00,0.0174
1053.00,0.0173
1052.00,0.0172
1051.00,0.0172
1050.00,0.0173
1049.00,0.0174
1048.00,0.0175
1047.00,0.0176
1046.00,0.0179
1045.00,0.0181
1044.00,0.0184
1043.00,0.0188
1042.00,0.0194
1041.00,0.0201
1040.00,0.0210
1039.00,0.0220
1038.00,0.0233
1037.00,0.0248
1036.00,0.0267
1035.00,0.0288
1034.00,0.0314
1033.00,0.0344
1032.00,0.0378
1031.00,0.0414
1030.00,0.0451
1029.00,0.0487
1028.00,0.0519
1027.00,0.0544
1026.00,0.0563
1025.00,0.0572
1024.00,0.0569
1023.00,0.0556
1022.00,0.0535
1021.00,0.0509
1020.00,0.0480
1019.00,0.0451
1018.00,0.0425
1017.00,0.0400
1016.00,0.0377
1015.00,0.0356
1014.00,0.0337
1013.00,0.0318
1012.00,0.0301
1011.00,0.0285
1010.00,0.0272
1009.00,0.0262
1008.00,0.0254
1007.00,0.0246
1006.00,0.0239
1005.00,0.0232
1004.00,0.0224
1003.00,0.0217
1002.00,0.0211
1001.00,0.0206
1000.00,0.0200
999.00,0.0196
998.00,0.0192
997.00,0.0188
996.00,0.0184
995.00,0.0182
994.00,0.0179
993.00,0.0178
992.00,0.0176
991.00,0.0176
990.00,0.0177
989.00,0.0180
988.00,0.0184
987.00,0.0190
986.00,0.0199
985.00,0.0211
984.00,0.0227
983.00,0.0248
982.00,0.0274
981.00,0.0305
980.00,0.0340
979.00,0.0379
978.00,0.0420
977.00,0.0462
976.00,0.0502
975.00,0.0537
974.00,0.0565
973.00,0.0583
972.00,0.0590
971.00,0.0585
970.00,0.0569
969.00,0.0541
968.00,0.0503
967.00,0.0459
966.00,0.0414
965.00,0.0371
964.00,0.0332
963.00,0.0299
962.00,0.0273
961.00,0.0252
960.00,0.0235
959.00,0.0222
958.00,0.0211
957.00,0.0203
956.00,0.0197
955.00,0.0192
954.00,0.0188
953.00,0.0184
952.00,0.0179
951.00,0.0174
950.00,0.0170
949.00,0.0167
948.00,0.0164
947.00,0.0161
946.00,0.0159
945.00,0.0158
944.00,0.0156
943.00,0.0154
942.00,0.0153
941.00,0.0151
940.00,0.0150
939.00,0.0149
938.00,0.0148
937.00,0.0148
936.00,0.0147
935.00,0.0147
934.00,0.0149
933.00,0.0151
932.00,0.0154
931.00,0.0158
930.00,0.0163
929.00,0.0167
928.00,0.0170
927.00,0.0172
926.00,0.0174
925.00,0.0174
924.00,0.0171
923.00,0.0166
922.00,0.0160
921.00,0.0154
920.00,0.0149
919.00,0.0145
918.00,0.0143
917.00,0.0141
916.00,0.0139
915.00,0.0138
914.00,0.0137
913.00,0.0137
912.00,0.0136
911.00,0.0135
910.00,0.0134
909.00,0.0134
908.00,0.0133
907.00,0.0132
906.00,0.0132
905.00,0.0132
904.00,0.0131
903.00,0.0130
902.00,0.0130
901.00,0.0130
900.00,0.0129
899.00,0.0129
898.00,0.0129
897.00,0.0129
896.00,0.0129
895.00,0.0129
894.00,0.0129
893.00,0.0130
892.00,0.0130
891.00,0.0131
890.00,0.0132
889.00,0.0133
888.00,0.0134
887.00,0.0136
886.00,0.0139
885.00,0.0143
884.00,0.0147
883.00,0.0152
882.00,0.0158
881.00,0.0165
880.00,0.0171
879.00,0.0178
878.00,0.0184
877.00,0.0190
876.00,0.0194
875.00,0.0198
874.00,0.0201
873.00,0.0203
872.00,0.0204
871.00,0.0205
870.00,0.0207
869.00,0.0210
868.00,0.0212
867.00,0.0217
866.00,0.0223
865.00,0.0231
864.00,0.0240
863.00,0.0250
862.00,0.0263
861.00,0.0276
860.00,0.0289
859.00,0.0300
858.00,0.0306
857.00,0.0304
856.00,0.0293
855.00,0.0276
854.00,0.0257
853.00,0.0237
852.00,0.0218
851.00,0.0203
850.00,0.0190
849.00,0.0181
848.00,0.0174
847.00,0.0171
846.00,0.0173
845.00,0.0180
844.00,0.0196
843.00,0.0224
842.00,0.0267
841.00,0.0323
840.00,0.0387
839.00,0.0448
838.00,0.0496
837.00,0.0521
836.00,0.0518
835.00,0.0487
834.00,0.0439
833.00,0.0383
832.00,0.0332
831.00,0.0290
830.00,0.0258
829.00,0.0235
828.00,0.0218
827.00,0.0205
826.00,0.0197
825.00,0.0190
824.00,0.0184
823.00,0.0180
822.00,0.0178
821.00,0.0177
820.00,0.0176
819.00,0.0177
818.00,0.0180
817.00,0.0185
816.00,0.0192
815.00,0.0204
814.00,0.0223
813.00,0.0251
812.00,0.0293
811.00,0.0350
810.00,0.0417
809.00,0.0479
808.00,0.0518
807.00,0.0522
806.00,0.0493
805.00,0.0444
804.00,0.0394
803.00,0.0355
802.00,0.0334
801.00,0.0329
800.00,0.0336
799.00,0.0352
798.00,0.0371
797.00,0.0386
796.00,0.0392
795.00,0.0385
794.00,0.0367
793.00,0.0340
792.00,0.0311
791.00,0.0284
790.00,0.0261
789.00,0.0242
788.00,0.0226
787.00,0.0214
786.00,0.0205
785.00,0.0197
784.00,0.0190
783.00,0.0185
782.00,0.0181
781.00,0.0178
780.00,0.0176
779.00,0.0175
778.00,0.0173
777.00,0.0171
776.00,0.0168
775.00,0.0165
774.00,0.0165
773.00,0.0167
772.00,0.0169
771.00,0.0171
770.00,0.0173
769.00,0.0177
768.00,0.0181
767.00,0.0187
766.00,0.0193
765.00,0.0205
764.00,0.0231
763.00,0.0282
762.00,0.0360
761.00,0.0452
760.00,0.0535
759.00,0.0579
758.00,0.0566
757.00,0.0502
756.00,0.0420
755.00,0.0356
754.00,0.0328
753.00,0.0334
752.00,0.0371
751.00,0.0441
750.00,0.0555
749.00,0.0720
748.00,0.0933
747.00,0.1165
746.00,0.1360
745.00,0.1463
744.00,0.1461
743.00,0.1388
742.00,0.1295
741.00,0.1203
740.00,0.1113
739.00,0.1022
738.00,0.0932
737.00,0.0848
736.00,0.0773
735.00,0.0710
734.00,0.0661
733.00,0.0622
732.00,0.0591
731.00,0.0566
730.00,0.0547
729.00,0.0533
728.00,0.0522
727.00,0.0511
726.00,0.0501
725.00,0.0490
724.00,0.0478
723.00,0.0468
722.00,0.0461
721.00,0.0458
720.00,0.0458
719.00,0.0462
718.00,0.0469
717.00,0.0479
716.00,0.0489
715.00,0.0496
714.00,0.0500
713.00,0.0502
712.00,0.0499
711.00,0.0490
710.00,0.0473
709.00,0.0448
708.00,0.0422
707.00,0.0401
706.00,0.0389
705.00,0.0386
704.00,0.0389
703.00,0.0399
702.00,0.0415
701.00,0.0434
700.00,0.0448
699.00,0.0456
698.00,0.0459
697.00,0.0461
696.00,0.0466
695.00,0.0474
694.00,0.0486
693.00,0.0501
692.00,0.0515
691.00,0.0530
690.00,0.0544
689.00,0.0557
688.00,0.0568
687.00,0.0576
686.00,0.0584
685.00,0.0588
684.00,0.0590
683.00,0.0589
682.00,0.0587
681.00,0.0582
680.00,0.0576
679.00,0.0567
678.00,0.0559
677.00,0.0549
676.00,0.0539
675.00,0.0528
674.00,0.0518
673.00,0.0507
672.00,0.0496
671.00,0.0486
670.00,0.0477
669.00,0.0468
668.00,0.0455
667.00,0.0443
666.00,0.0433
665.00,0.0424
664.00,0.0414
663.00,0.0404
662.00,0.0395
661.00,0.0387
660.00,0.0378
659.00,0.0370
658.00,0.0363
657.00,0.0357
656.00,0.0351
655.00,0.0346
654.00,0.0344
653.00,0.0347
652.00,0.0353
651.00,0.0363
650.00,0.0376
649.00,0.0388
648.00,0.0397
647.00,0.0402
646.00,0.0404
645.00,0.0402
644.00,0.0394
643.00,0.0384
642.00,0.0373
641.00,0.0360
640.00,0.0345
639.00,0.0330
638.00,0.0318
637.00,0.0307
636.00,0.0299
635.00,0.0293
634.00,0.0290
633.00,0.0290
632.00,0.0291
631.00,0.0297
630.00,0.0308
629.00,0.0324
628.00,0.0343
627.00,0.0361
626.00,0.0378
625.00,0.0390
624.00,0.0397
623.00,0.0402
622.00,0.0410
621.00,0.0419
620.00,0.0429
619.00,0.0438
618.00,0.0450
617.00,0.0464
616.00,0.0485
615.00,0.0518
614.00,0.0566
613.00,0.0632
612.00,0.0712
611.00,0.0795
610.00,0.0862
609.00,0.0892
608.00,0.0875
607.00,0.0823
606.00,0.0758
605.00,0.0695
604.00,0.0638
603.00,0.0588
602.00,0.0541
601.00,0.0496
600.00,0.0456
599.00,0.0422
598.00,0.0395
597.00,0.0373
596.00,0.0354
595.00,0.0337
594.00,0.0324
593.00,0.0311
592.00,0.0299
591.00,0.0290
590.00,0.0283
589.00,0.0276
588.00,0.0270
587.00,0.0263
586.00,0.0258
585.00,0.0252
584.00,0.0245
583.00,0.0239
582.00,0.0235
581.00,0.0231
580.00,0.0226
579.00,0.0220
578.00,0.0217
577.00,0.0214
576.00,0.0210
575.00,0.0207
574.00,0.0205
573.00,0.0203
572.00,0.0199
571.00,0.0195
570.00,0.0193
569.00,0.0191
568.00,0.0187
567.00,0.0184
566.00,0.0183
565.00,0.0181
564.00,0.0178
563.00,0.0176
562.00,0.0176
561.00,0.0176
560.00,0.0175
559.00,0.0174
558.00,0.0173
557.00,0.0173
556.00,0.0170
555.00,0.0170
554.00,0.0171
553.00,0.0172
552.00,0.0170
551.00,0.0168
550.00,0.0166
549.00,0.0163
548.00,0.0157
547.00,0.0152
546.00,0.0148
545.00,0.0144
544.00,0.0139
543.00,0.0135
542.00,0.0133
541.00,0.0131
540.00,0.0126
539.00,0.0122
538.00,0.0120
537.00,0.0119
536.00,0.0116
535.00,0.0114
534.00,0.0113
533.00,0.0112
532.00,0.0109
531.00,0.0107
530.00,0.0108
529.00,0.0110
528.00,0.0112
527.00,0.0119
526.00,0.0135
525.00,0.0163
524.00,0.0209
523.00,0.0281
522.00,0.0381
521.00,0.0495
520.00,0.0598
519.00,0.0671
518.00,0.0694
517.00,0.0660
516.00,0.0580
515.00,0.0486
514.00,0.0402
513.00,0.0336
512.00,0.0286
511.00,0.0253
510.00,0.0240
509.00,0.0246
508.00,0.0276
507.00,0.0339
506.00,0.0434
505.00,0.0541
504.00,0.0626
503.00,0.0660
502.00,0.0634
501.00,0.0567
500.00,0.0486
499.00,0.0416
498.00,0.0363
497.00,0.0324
496.00,0.0294
495.00,0.0273
494.00,0.0260
493.00,0.0252
492.00,0.0246
491.00,0.0249
490.00,0.0268
489.00,0.0306
488.00,0.0362
487.00,0.0441
486.00,0.0545
485.00,0.0671
484.00,0.0816
483.00,0.0966
482.00,0.1088
481.00,0.1137
480.00,0.1089
479.00,0.0962
478.00,0.0802
477.00,0.0652
476.00,0.0531
475.00,0.0447
474.00,0.0393
473.00,0.0358
472.00,0.0331
471.00,0.0315
470.00,0.0312
469.00,0.0316
468.00,0.0319
467.00,0.0323
466.00,0.0327
465.00,0.0328
464.00,0.0326
463.00,0.0322
462.00,0.0317
461.00,0.0305
460.00,0.0284
459.00,0.0265
458.00,0.0255
457.00,0.0251
456.00,0.0247
455.00,0.0248
454.00,0.0257
453.00,0.0269
452.00,0.0283
451.00,0.0307
450.00,0.0349
449.00,0.0409
448.00,0.0480
447.00,0.0559
446.00,0.0636
445.00,0.0688
444.00,0.0702
443.00,0.0682
442.00,0.0641
441.00,0.0592
440.00,0.0540
439.00,0.0498
438.00,0.0472
437.00,0.0457
436.00,0.0448
435.00,0.0451
434.00,0.0471
433.00,0.0503
432.00,0.0541
431.00,0.0590
430.00,0.0651
429.00,0.0715
428.00,0.0771
427.00,0.0821
426.00,0.0865
425.00,0.0890
424.00,0.0886
423.00,0.0858
422.00,0.0821
421.00,0.0772
420.00,0.0704
419.00,0.0627
418.00,0.0564
417.00,0.0521
416.00,0.0487
415.00,0.0460
414.00,0.0439
413.00,0.0413
412.00,0.0378
411.00,0.0347
410.00,0.0331
409.00,0.0322
408.00,0.0305
407.00,0.0289
406.00,0.0287
405.00,0.0288
404.00,0.0283
403.00,0.0281
402.00,0.0296
401.00,0.0313
400.00,0.0317
