% Filename : WB3_00041_00038.h5
% Date & Time : 30-Oct-2025 17:58:35
% X-ray Energy (keV) : 13.30001
% Exposure Time (s) : 0.500
% Photodiode Value : 140584.000
% I0 of Sample : 0
% I0 of Standard : 1
% 
% q(A^-1)   I(q)    I(q)_SE
8.40000000e-01	0.00000000e+00	0.00000000e+00
8.45000000e-01	4.36552893e-03	7.62652289e-04
8.50000000e-01	4.17248031e-03	3.86165326e-04
8.55000000e-01	4.05198580e-03	3.30495218e-04
8.60000000e-01	4.01977132e-03	2.83747806e-04
8.65000000e-01	3.98535384e-03	2.59126270e-04
8.70000000e-01	4.00971970e-03	2.48394857e-04
8.75000000e-01	4.00023616e-03	2.38630275e-04
8.80000000e-01	3.99824318e-03	2.30577705e-04
8.85000000e-01	3.96689082e-03	2.16254744e-04
8.90000000e-01	3.96905703e-03	2.11711355e-04
8.95000000e-01	4.00335175e-03	2.07660575e-04
9.00000000e-01	4.01820602e-03	2.06424664e-04
9.05000000e-01	4.00386952e-03	1.96553447e-04
9.10000000e-01	4.01130727e-03	1.93272718e-04
9.15000000e-01	4.03432149e-03	1.91376403e-04
9.20000000e-01	4.01522415e-03	1.90252037e-04
9.25000000e-01	4.03454676e-03	1.82740737e-04
9.30000000e-01	4.03189079e-03	1.81002511e-04
9.35000000e-01	4.01524881e-03	1.76720585e-04
9.40000000e-01	4.01797701e-03	1.77331070e-04
9.45000000e-01	4.04037898e-03	1.73864310e-04
9.50000000e-01	4.03891793e-03	1.71345546e-04
9.55000000e-01	4.04472207e-03	1.68508662e-04
9.60000000e-01	4.04556081e-03	1.68589804e-04
9.65000000e-01	4.02553627e-03	1.65022872e-04
9.70000000e-01	4.05323839e-03	1.63494935e-04
9.75000000e-01	4.08827421e-03	1.62970234e-04
9.80000000e-01	4.03948407e-03	1.59664566e-04
9.85000000e-01	4.08169819e-03	1.61495960e-04
9.90000000e-01	4.08521660e-03	1.56680641e-04
9.95000000e-01	4.07061636e-03	1.55392691e-04
1.00000000e+00	4.10723986e-03	1.56040421e-04
1.00500000e+00	4.11741569e-03	1.56423989e-04
1.01000000e+00	4.09480899e-03	1.52304327e-04
1.01500000e+00	4.10489672e-03	1.51110797e-04
1.02000000e+00	4.12049572e-03	1.51685850e-04
1.02500000e+00	4.08565916e-03	1.48400839e-04
1.03000000e+00	4.11491253e-03	1.48955030e-04
1.03500000e+00	4.11795039e-03	1.46864388e-04
1.04000000e+00	4.11057796e-03	1.45689521e-04
1.04500000e+00	4.12046706e-03	1.46105704e-04
1.05000000e+00	4.12972632e-03	1.45438588e-04
1.05500000e+00	4.12295698e-03	1.42843287e-04
1.06000000e+00	4.14235682e-03	1.43228637e-04
1.06500000e+00	4.16062675e-03	1.43991218e-04
1.07000000e+00	4.16206492e-03	1.43804044e-04
1.07500000e+00	4.19903740e-03	1.44000550e-04
1.08000000e+00	4.20947010e-03	1.43503150e-04
1.08500000e+00	4.23194548e-03	1.44447905e-04
1.09000000e+00	4.26647376e-03	1.46555188e-04
1.09500000e+00	4.29185220e-03	1.44390276e-04
1.10000000e+00	4.29649733e-03	1.45448035e-04
1.10500000e+00	4.33000052e-03	1.47100452e-04
1.11000000e+00	4.31084007e-03	1.46623571e-04
1.11500000e+00	4.34748849e-03	1.46841870e-04
1.12000000e+00	4.40670476e-03	1.49422726e-04
1.12500000e+00	4.41346332e-03	1.49396533e-04
1.13000000e+00	4.40233899e-03	1.50807943e-04
1.13500000e+00	4.45043578e-03	1.50547841e-04
1.14000000e+00	4.45320319e-03	1.50369743e-04
1.14500000e+00	4.49739295e-03	1.53113228e-04
1.15000000e+00	4.48573303e-03	1.53525365e-04
1.15500000e+00	4.49975158e-03	1.52328226e-04
1.16000000e+00	4.54942492e-03	1.54562650e-04
1.16500000e+00	4.56108315e-03	1.54695190e-04
1.17000000e+00	4.59656329e-03	1.57950334e-04
1.17500000e+00	4.62199224e-03	1.56579176e-04
1.18000000e+00	4.63041230e-03	1.57481407e-04
1.18500000e+00	4.66508215e-03	1.58509291e-04
1.19000000e+00	4.70597699e-03	1.61589567e-04
1.19500000e+00	4.74474278e-03	1.61023610e-04
1.20000000e+00	4.79203512e-03	1.63554877e-04
1.20500000e+00	4.78815702e-03	1.63158815e-04
1.21000000e+00	4.82869103e-03	1.66635222e-04
1.21500000e+00	4.84859072e-03	1.64644537e-04
1.22000000e+00	4.89108122e-03	1.66319505e-04
1.22500000e+00	4.87601677e-03	1.66387141e-04
1.23000000e+00	4.92966912e-03	1.69546967e-04
1.23500000e+00	5.01324488e-03	1.71612912e-04
1.24000000e+00	5.37950099e-03	2.55895346e-04
1.24500000e+00	5.00037587e-03	1.71354747e-04
1.25000000e+00	5.02741700e-03	1.73275444e-04
1.25500000e+00	5.06071146e-03	1.72329789e-04
1.26000000e+00	5.09269944e-03	1.74517059e-04
1.26500000e+00	5.13485127e-03	1.75281793e-04
1.27000000e+00	5.14349513e-03	1.78180086e-04
1.27500000e+00	5.16675928e-03	1.77166198e-04
1.28000000e+00	5.17002072e-03	1.76164725e-04
1.28500000e+00	5.25272471e-03	1.80019776e-04
1.29000000e+00	5.25144285e-03	1.81574534e-04
1.29500000e+00	5.27282191e-03	1.80480071e-04
1.30000000e+00	5.31138764e-03	1.81403039e-04
1.30500000e+00	5.33982801e-03	1.83219702e-04
1.31000000e+00	5.33509537e-03	1.85162314e-04
1.31500000e+00	5.38135951e-03	1.84502352e-04
1.32000000e+00	5.41606681e-03	1.85459428e-04
1.32500000e+00	5.43053712e-03	1.86449628e-04
1.33000000e+00	5.47581387e-03	1.90278044e-04
1.33500000e+00	5.50042766e-03	1.88549453e-04
1.34000000e+00	5.50627668e-03	1.88953721e-04
1.34500000e+00	5.53093238e-03	1.90465027e-04
1.35000000e+00	5.55983441e-03	1.93201360e-04
1.35500000e+00	5.61180568e-03	1.92471880e-04
1.36000000e+00	5.58403795e-03	1.91251869e-04
1.36500000e+00	5.63764780e-03	1.93742215e-04
1.37000000e+00	5.64448579e-03	1.96770078e-04
1.37500000e+00	5.65698259e-03	1.94208588e-04
1.38000000e+00	5.67796595e-03	1.95348710e-04
1.38500000e+00	5.65271293e-03	1.95518992e-04
1.39000000e+00	5.68936080e-03	1.98144452e-04
1.39500000e+00	5.70197375e-03	1.95606566e-04
1.40000000e+00	5.76416353e-03	2.03810956e-04
1.40500000e+00	5.73727594e-03	2.18318062e-04
1.41000000e+00	5.74219907e-03	2.28753557e-04
1.41500000e+00	5.76328662e-03	2.37780528e-04
1.42000000e+00	5.78829869e-03	2.48522034e-04
1.42500000e+00	5.88436456e-03	2.60221922e-04
1.43000000e+00	5.92616971e-03	2.71830429e-04
1.43500000e+00	6.03434198e-03	2.85222027e-04
1.44000000e+00	6.14214950e-03	3.01583319e-04
1.44500000e+00	6.08920108e-03	3.06871081e-04
1.45000000e+00	6.22455248e-03	3.03288637e-04
1.45500000e+00	6.24900146e-03	2.73531570e-04
1.46000000e+00	6.19266018e-03	2.64852192e-04
1.46500000e+00	6.11913063e-03	2.57150175e-04
1.47000000e+00	6.10443908e-03	2.56077830e-04
1.47500000e+00	6.06238988e-03	2.46944644e-04
1.48000000e+00	5.96769752e-03	2.40276233e-04
1.48500000e+00	5.96730899e-03	2.40415399e-04
1.49000000e+00	5.90551197e-03	2.38582768e-04
1.49500000e+00	5.93770190e-03	2.34517938e-04
1.50000000e+00	5.92605686e-03	2.33271127e-04
1.50500000e+00	5.92552635e-03	2.34534452e-04
1.51000000e+00	5.93040792e-03	2.35373273e-04
1.51500000e+00	5.97507319e-03	2.33168848e-04
1.52000000e+00	6.05224913e-03	2.35389642e-04
1.52500000e+00	6.12702337e-03	2.38071534e-04
1.53000000e+00	6.06109603e-03	2.36971016e-04
1.53500000e+00	6.07115186e-03	2.30544079e-04
1.54000000e+00	6.01476143e-03	2.28150794e-04
1.54500000e+00	5.94540867e-03	2.25022643e-04
1.55000000e+00	5.88730916e-03	2.22220198e-04
1.55500000e+00	5.81775133e-03	2.14597152e-04
1.56000000e+00	5.72655696e-03	2.11686062e-04
1.56500000e+00	5.66589354e-03	2.08423859e-04
1.57000000e+00	5.60345596e-03	2.04633863e-04
1.57500000e+00	5.57178061e-03	1.99684527e-04
1.58000000e+00	5.51596723e-03	1.97289449e-04
1.58500000e+00	5.50224608e-03	1.96822830e-04
1.59000000e+00	5.50827825e-03	1.97166411e-04
1.59500000e+00	5.47733534e-03	1.92233706e-04
1.60000000e+00	5.48439030e-03	1.92383439e-04
1.60500000e+00	5.44869164e-03	1.91364477e-04
1.61000000e+00	5.46180594e-03	1.90960246e-04
1.61500000e+00	5.46242102e-03	1.89295458e-04
1.62000000e+00	5.45159813e-03	1.89632534e-04
1.62500000e+00	5.43241291e-03	1.91179766e-04
1.63000000e+00	5.42739094e-03	1.88933687e-04
1.63500000e+00	5.41005814e-03	1.88322811e-04
1.64000000e+00	5.37486860e-03	1.87220754e-04
1.64500000e+00	5.39010624e-03	1.89810322e-04
1.65000000e+00	5.36945664e-03	1.87025118e-04
1.65500000e+00	5.33439147e-03	1.85654636e-04
1.66000000e+00	5.31210218e-03	1.85015250e-04
1.66500000e+00	5.25297505e-03	1.86036545e-04
1.67000000e+00	5.26017661e-03	1.82474477e-04
1.67500000e+00	5.23089922e-03	1.81886636e-04
1.68000000e+00	5.19696051e-03	1.81276101e-04
1.68500000e+00	5.15231416e-03	1.82713574e-04
1.69000000e+00	5.14518590e-03	1.78913693e-04
1.69500000e+00	5.12132168e-03	1.77771732e-04
1.70000000e+00	5.10232134e-03	1.79152332e-04
1.70500000e+00	5.07238537e-03	1.78956594e-04
1.71000000e+00	5.05028609e-03	1.75901181e-04
1.71500000e+00	5.04783962e-03	1.75584973e-04
1.72000000e+00	4.99115427e-03	1.75369772e-04
1.72500000e+00	4.96642913e-03	1.75265206e-04
1.73000000e+00	4.97205828e-03	1.73101125e-04
1.73500000e+00	4.91448898e-03	1.71665473e-04
1.74000000e+00	4.91593312e-03	1.72109200e-04
1.74500000e+00	4.88966916e-03	1.73197553e-04
1.75000000e+00	4.88751435e-03	1.69829636e-04
1.75500000e+00	4.84102745e-03	1.69259732e-04
1.76000000e+00	4.82734663e-03	1.68745147e-04
1.76500000e+00	4.82148117e-03	1.70685134e-04
1.77000000e+00	4.78852919e-03	1.66666175e-04
1.77500000e+00	4.80186596e-03	1.67673476e-04
1.78000000e+00	4.75316232e-03	1.66403875e-04
1.78500000e+00	4.75176918e-03	1.68172878e-04
1.79000000e+00	4.71697482e-03	1.64133012e-04
1.79500000e+00	4.71656460e-03	1.64602758e-04
1.80000000e+00	4.67936528e-03	1.64278717e-04
1.80500000e+00	4.67491911e-03	1.65069929e-04
1.81000000e+00	4.67241201e-03	1.62697207e-04
1.81500000e+00	4.68159696e-03	1.63048775e-04
1.82000000e+00	4.64562236e-03	1.62887881e-04
1.82500000e+00	4.66436723e-03	1.64451972e-04
1.83000000e+00	4.63637869e-03	1.61466973e-04
1.83500000e+00	4.61093013e-03	1.60957468e-04
1.84000000e+00	4.63788177e-03	1.62740602e-04
1.84500000e+00	4.63306680e-03	1.63496414e-04
1.85000000e+00	4.62970174e-03	1.61503328e-04
1.85500000e+00	4.68696707e-03	1.63565533e-04
1.86000000e+00	4.72378539e-03	1.65970176e-04
1.86500000e+00	4.75272518e-03	1.67376948e-04
1.87000000e+00	4.70161458e-03	1.63829426e-04
1.87500000e+00	4.67020695e-03	1.63204511e-04
1.88000000e+00	4.63407807e-03	1.62582242e-04
1.88500000e+00	4.57547563e-03	1.61599688e-04
1.89000000e+00	4.54826255e-03	1.58342419e-04
1.89500000e+00	4.53035019e-03	1.58574907e-04
1.90000000e+00	4.51641636e-03	1.58577890e-04
1.90500000e+00	4.45692207e-03	1.56567018e-04
1.91000000e+00	4.44322057e-03	1.55065705e-04
1.91500000e+00	4.41779654e-03	1.54278632e-04
1.92000000e+00	4.37347802e-03	1.53689674e-04
1.92500000e+00	4.37303347e-03	1.53756074e-04
1.93000000e+00	4.34788013e-03	1.51608240e-04
1.93500000e+00	4.33634591e-03	1.51542242e-04
1.94000000e+00	4.33854895e-03	1.52833595e-04
1.94500000e+00	4.30598849e-03	1.51332140e-04
1.95000000e+00	4.28023166e-03	1.48983196e-04
1.95500000e+00	4.27709156e-03	1.49483601e-04
1.96000000e+00	4.25311615e-03	1.49558575e-04
1.96500000e+00	4.22408869e-03	1.48651253e-04
1.97000000e+00	4.22871008e-03	1.47020918e-04
1.97500000e+00	4.22687848e-03	1.47969520e-04
1.98000000e+00	4.17735403e-03	1.46808619e-04
1.98500000e+00	4.18125857e-03	1.47218748e-04
1.99000000e+00	4.15520395e-03	1.45429256e-04
1.99500000e+00	4.15138609e-03	1.45524278e-04
2.00000000e+00	4.12694131e-03	1.45160336e-04
2.00500000e+00	4.16946580e-03	1.46966928e-04
2.01000000e+00	4.11142422e-03	1.59033594e-04
2.01500000e+00	4.05633232e-03	1.66700439e-04
2.02000000e+00	4.03617724e-03	1.76779970e-04
2.02500000e+00	4.02424243e-03	1.83280439e-04
2.03000000e+00	3.96721215e-03	1.91114511e-04
2.03500000e+00	3.99452166e-03	2.01024484e-04
2.04000000e+00	3.93318194e-03	2.06914685e-04
2.04500000e+00	3.88085391e-03	2.15164341e-04
2.05000000e+00	3.87608779e-03	2.25626161e-04
2.05500000e+00	3.90818422e-03	2.22513105e-04
2.06000000e+00	3.96578016e-03	1.96484944e-04
2.06500000e+00	3.93341437e-03	1.86154258e-04
2.07000000e+00	3.88419594e-03	1.74041370e-04
2.07500000e+00	3.91123749e-03	1.71522774e-04
2.08000000e+00	3.88099438e-03	1.69718041e-04
2.08500000e+00	3.88680731e-03	1.68463146e-04
2.09000000e+00	3.89082279e-03	1.63657368e-04
2.09500000e+00	3.85815538e-03	1.60610271e-04
2.10000000e+00	3.90829841e-03	1.62462918e-04
2.10500000e+00	3.88946746e-03	1.60880900e-04
2.11000000e+00	3.82301681e-03	1.51748381e-04
2.11500000e+00	3.80283460e-03	1.49471550e-04
2.12000000e+00	3.77943377e-03	1.47743621e-04
2.12500000e+00	3.76067937e-03	1.46580645e-04
2.13000000e+00	3.73213477e-03	1.39609578e-04
2.13500000e+00	3.70474589e-03	1.36871703e-04
2.14000000e+00	3.67506007e-03	1.34617269e-04
2.14500000e+00	3.65060607e-03	1.33978073e-04
2.15000000e+00	3.64567887e-03	1.29364522e-04
2.15500000e+00	3.63440604e-03	1.29215657e-04
2.16000000e+00	3.63558434e-03	1.28636496e-04
2.16500000e+00	3.61699843e-03	1.28858759e-04
2.17000000e+00	3.72893933e-03	1.56367316e-04
2.17500000e+00	3.81313009e-03	1.75063830e-04
2.18000000e+00	3.59907772e-03	1.25890106e-04
2.18500000e+00	3.58989170e-03	1.26150098e-04
2.19000000e+00	3.55647073e-03	1.24559599e-04
2.19500000e+00	3.52905355e-03	1.22919922e-04
2.20000000e+00	3.52056598e-03	1.22912794e-04
2.20500000e+00	3.50442918e-03	1.22697679e-04
2.21000000e+00	3.50393956e-03	1.23413762e-04
2.21500000e+00	3.46887126e-03	1.20862103e-04
2.22000000e+00	3.50117177e-03	1.21805995e-04
2.22500000e+00	3.47410386e-03	1.21953240e-04
2.23000000e+00	3.45968882e-03	1.22075989e-04
2.23500000e+00	3.49381570e-03	1.22985316e-04
2.24000000e+00	3.61299406e-03	1.49364852e-04
2.24500000e+00	3.41066059e-03	1.19675293e-04
2.25000000e+00	3.34779307e-03	1.18435030e-04
2.25500000e+00	3.34990983e-03	1.16405178e-04
2.26000000e+00	3.35053625e-03	1.16935583e-04
2.26500000e+00	3.29597544e-03	1.15542870e-04
2.27000000e+00	3.26814604e-03	1.16149210e-04
2.27500000e+00	3.32200822e-03	1.15658557e-04
2.28000000e+00	3.24890708e-03	1.13270129e-04
2.28500000e+00	3.23587025e-03	1.13596854e-04
2.29000000e+00	3.22166643e-03	1.13724375e-04
2.29500000e+00	3.18013065e-03	1.11945138e-04
2.30000000e+00	3.14402669e-03	1.09700517e-04
2.30500000e+00	3.12992953e-03	1.09465220e-04
2.31000000e+00	3.12179099e-03	1.09982066e-04
2.31500000e+00	3.08412693e-03	1.09578059e-04
2.32000000e+00	3.10726703e-03	1.08103061e-04
2.32500000e+00	3.04660074e-03	1.06836933e-04
2.33000000e+00	3.05122539e-03	1.07317462e-04
2.33500000e+00	3.03111170e-03	1.07838726e-04
2.34000000e+00	3.01045593e-03	1.05211926e-04
2.34500000e+00	2.99097044e-03	1.04678664e-04
2.35000000e+00	2.98452097e-03	1.04903206e-04
2.35500000e+00	2.96681934e-03	1.05595923e-04
2.36000000e+00	2.94099574e-03	1.03334975e-04
2.36500000e+00	2.93061892e-03	1.02815637e-04
2.37000000e+00	2.89721985e-03	1.01794990e-04
2.37500000e+00	2.88772602e-03	1.02379601e-04
2.38000000e+00	2.88268202e-03	1.02753876e-04
2.38500000e+00	2.87797126e-03	1.01140032e-04
2.39000000e+00	2.86618952e-03	1.01007963e-04
2.39500000e+00	2.81508422e-03	9.97999123e-05
2.40000000e+00	2.79584327e-03	1.00604025e-04
2.40500000e+00	2.77680358e-03	9.79008224e-05
2.41000000e+00	2.77576446e-03	9.82975063e-05
2.41500000e+00	2.78163392e-03	9.85087367e-05
2.42000000e+00	2.76174333e-03	9.91846975e-05
2.42500000e+00	2.74034898e-03	9.82087637e-05
2.43000000e+00	2.72955825e-03	9.69379768e-05
2.43500000e+00	2.71506273e-03	9.67277417e-05
2.44000000e+00	2.69341423e-03	9.63335492e-05
2.44500000e+00	2.65615856e-03	9.63577762e-05
2.45000000e+00	2.65376309e-03	9.44389929e-05
2.45500000e+00	2.64065789e-03	9.44476559e-05
2.46000000e+00	2.63137351e-03	9.43978320e-05
2.46500000e+00	2.63461866e-03	9.57151319e-05
2.47000000e+00	2.59226624e-03	9.33530209e-05
2.47500000e+00	2.58849978e-03	9.27146152e-05
2.48000000e+00	2.58100094e-03	9.32897236e-05
2.48500000e+00	2.54729924e-03	9.20732479e-05
2.49000000e+00	2.52978214e-03	9.27951763e-05
2.49500000e+00	2.54384023e-03	9.15975650e-05
2.50000000e+00	2.50901624e-03	9.04753000e-05
2.50500000e+00	2.50421832e-03	9.10235308e-05
2.51000000e+00	2.47380411e-03	9.05829637e-05
2.51500000e+00	2.47634295e-03	9.07837771e-05
2.52000000e+00	2.46914985e-03	8.96997921e-05
2.52500000e+00	2.44918114e-03	8.94643791e-05
2.53000000e+00	2.46325838e-03	9.09959788e-05
2.53500000e+00	2.41227637e-03	9.00989404e-05
2.54000000e+00	2.41326206e-03	8.87266510e-05
2.54500000e+00	2.39885676e-03	8.87729200e-05
2.55000000e+00	2.38652868e-03	8.84701857e-05
2.55500000e+00	2.33353208e-03	8.74367926e-05
2.56000000e+00	2.27697195e-03	8.58258527e-05
2.56500000e+00	2.22004100e-03	8.27923211e-05
2.57000000e+00	2.16409070e-03	8.10202648e-05
2.57500000e+00	2.16478702e-03	8.11634537e-05
2.58000000e+00	2.11805055e-03	8.10716053e-05
2.58500000e+00	2.05159560e-03	7.77541429e-05
2.59000000e+00	2.03645315e-03	7.68669156e-05
2.59500000e+00	1.96281853e-03	7.41749762e-05
2.60000000e+00	1.91416357e-03	7.29130069e-05
2.60500000e+00	1.87171011e-03	7.28385981e-05
2.61000000e+00	1.79702310e-03	7.99866619e-05
2.61500000e+00	1.73720574e-03	8.61364708e-05
2.62000000e+00	1.75756062e-03	9.55157273e-05
2.62500000e+00	1.77948027e-03	1.03970753e-04
2.63000000e+00	1.79244310e-03	1.15244964e-04
2.63500000e+00	1.82044794e-03	1.28994632e-04
2.64000000e+00	1.75304488e-03	1.36633645e-04
2.64500000e+00	1.68041063e-03	1.39925899e-04
2.65000000e+00	1.54254604e-03	1.36275859e-04
2.65500000e+00	1.50589837e-03	1.42054966e-04
2.66000000e+00	1.41170927e-03	1.43670208e-04
2.66500000e+00	1.27364711e-03	1.45539071e-04
2.67000000e+00	1.27389388e-03	1.56500797e-04
2.67500000e+00	1.23179827e-03	1.76653135e-04
2.68000000e+00	1.17163076e-03	1.95593437e-04
2.68500000e+00	1.16163987e-03	2.59076284e-04
2.69000000e+00	1.05888741e-03	3.80316119e-04
2.69500000e+00	0.00000000e+00	0.00000000e+00
2.70000000e+00	0.00000000e+00	0.00000000e+00
