% Filename : WB3_00041_00032.h5
% Date & Time : 30-Oct-2025 17:58:18
% X-ray Energy (keV) : 13.30001
% Exposure Time (s) : 0.500
% Photodiode Value : 140466.000
% I0 of Sample : 0
% I0 of Standard : 1
% 
% q(A^-1)   I(q)    I(q)_SE
8.40000000e-01	0.00000000e+00	0.00000000e+00
8.45000000e-01	4.18709830e-03	7.32378615e-04
8.50000000e-01	3.90372502e-03	3.61319712e-04
8.55000000e-01	3.86485172e-03	3.15010463e-04
8.60000000e-01	3.79469918e-03	2.67949196e-04
8.65000000e-01	3.77738741e-03	2.45473438e-04
8.70000000e-01	3.74940764e-03	2.32306829e-04
8.75000000e-01	3.79818999e-03	2.26570897e-04
8.80000000e-01	3.78645567e-03	2.18219215e-04
8.85000000e-01	3.80718836e-03	2.07454092e-04
8.90000000e-01	3.78735915e-03	2.02195518e-04
8.95000000e-01	3.76516451e-03	1.95282266e-04
9.00000000e-01	3.80561548e-03	1.95580346e-04
9.05000000e-01	3.78242960e-03	1.85825584e-04
9.10000000e-01	3.82439286e-03	1.84358591e-04
9.15000000e-01	3.79880836e-03	1.80216702e-04
9.20000000e-01	3.82421718e-03	1.81214644e-04
9.25000000e-01	3.84345203e-03	1.74263770e-04
9.30000000e-01	3.83232844e-03	1.72031235e-04
9.35000000e-01	3.82232786e-03	1.68311580e-04
9.40000000e-01	3.81796142e-03	1.68595492e-04
9.45000000e-01	3.85298476e-03	1.65849814e-04
9.50000000e-01	3.85204633e-03	1.63425097e-04
9.55000000e-01	3.85529489e-03	1.60644005e-04
9.60000000e-01	3.87372431e-03	1.61482182e-04
9.65000000e-01	3.84971701e-03	1.57756057e-04
9.70000000e-01	3.88568756e-03	1.56731147e-04
9.75000000e-01	3.88109507e-03	1.54752425e-04
9.80000000e-01	3.86192081e-03	1.52735669e-04
9.85000000e-01	3.88352432e-03	1.53654526e-04
9.90000000e-01	3.91568161e-03	1.50317664e-04
9.95000000e-01	3.90632390e-03	1.49163120e-04
1.00000000e+00	3.92804458e-03	1.49182797e-04
1.00500000e+00	3.92988142e-03	1.49380917e-04
1.01000000e+00	3.91399996e-03	1.45589854e-04
1.01500000e+00	3.91217131e-03	1.44092206e-04
1.02000000e+00	3.93227240e-03	1.44769588e-04
1.02500000e+00	3.94350440e-03	1.43368544e-04
1.03000000e+00	3.95288415e-03	1.42984441e-04
1.03500000e+00	3.95147045e-03	1.41052685e-04
1.04000000e+00	3.93434797e-03	1.39535110e-04
1.04500000e+00	3.94179190e-03	1.39761938e-04
1.05000000e+00	3.97259746e-03	1.39885178e-04
1.05500000e+00	3.94657589e-03	1.36818673e-04
1.06000000e+00	3.93705072e-03	1.36144384e-04
1.06500000e+00	3.94892928e-03	1.36787034e-04
1.07000000e+00	3.99249124e-03	1.38038463e-04
1.07500000e+00	4.00903653e-03	1.37536675e-04
1.08000000e+00	4.04933304e-03	1.38145236e-04
1.08500000e+00	4.05447257e-03	1.38329953e-04
1.09000000e+00	4.06649402e-03	1.39545184e-04
1.09500000e+00	4.07653743e-03	1.37217921e-04
1.10000000e+00	4.10764591e-03	1.39165818e-04
1.10500000e+00	4.14168919e-03	1.40721372e-04
1.11000000e+00	4.10703509e-03	1.39784206e-04
1.11500000e+00	4.13903808e-03	1.39851720e-04
1.12000000e+00	4.17289176e-03	1.41534737e-04
1.12500000e+00	4.20006230e-03	1.42163209e-04
1.13000000e+00	4.17883172e-03	1.43224107e-04
1.13500000e+00	4.21060147e-03	1.42537853e-04
1.14000000e+00	4.21366240e-03	1.42347684e-04
1.14500000e+00	4.29232290e-03	1.46826413e-04
1.15000000e+00	4.30747803e-03	1.48283442e-04
1.15500000e+00	4.28770120e-03	1.45221224e-04
1.16000000e+00	4.33165570e-03	1.47216112e-04
1.16500000e+00	4.37836272e-03	1.48708622e-04
1.17000000e+00	4.35046801e-03	1.49646325e-04
1.17500000e+00	4.39265081e-03	1.48832763e-04
1.18000000e+00	4.42250008e-03	1.50622461e-04
1.18500000e+00	4.45239046e-03	1.51359258e-04
1.19000000e+00	4.46387343e-03	1.53349547e-04
1.19500000e+00	4.46245090e-03	1.51454072e-04
1.20000000e+00	4.51561131e-03	1.54182518e-04
1.20500000e+00	4.52550887e-03	1.54240727e-04
1.21000000e+00	4.55102225e-03	1.57088925e-04
1.21500000e+00	4.56142967e-03	1.55073649e-04
1.22000000e+00	4.58895570e-03	1.56091411e-04
1.22500000e+00	4.59628071e-03	1.56995069e-04
1.23000000e+00	4.62315328e-03	1.59082139e-04
1.23500000e+00	4.72288870e-03	1.69590517e-04
1.24000000e+00	5.13754424e-03	2.78826499e-04
1.24500000e+00	4.69738495e-03	1.61118334e-04
1.25000000e+00	4.72448434e-03	1.62883001e-04
1.25500000e+00	4.76397717e-03	1.62387634e-04
1.26000000e+00	4.75516397e-03	1.63045676e-04
1.26500000e+00	4.81555869e-03	1.64484541e-04
1.27000000e+00	4.80771838e-03	1.66611817e-04
1.27500000e+00	4.88298535e-03	1.67537353e-04
1.28000000e+00	4.86964476e-03	1.66074274e-04
1.28500000e+00	4.92038340e-03	1.68660874e-04
1.29000000e+00	4.92080023e-03	1.70212260e-04
1.29500000e+00	4.92510790e-03	1.68495247e-04
1.30000000e+00	4.94434286e-03	1.68940892e-04
1.30500000e+00	4.95757535e-03	1.70131605e-04
1.31000000e+00	4.97143323e-03	1.72602425e-04
1.31500000e+00	5.00140527e-03	1.71511577e-04
1.32000000e+00	5.04959023e-03	1.73016427e-04
1.32500000e+00	5.05373951e-03	1.73638885e-04
1.33000000e+00	5.07185732e-03	1.76420698e-04
1.33500000e+00	5.07961072e-03	1.74214049e-04
1.34000000e+00	5.11078593e-03	1.75445982e-04
1.34500000e+00	5.13293513e-03	1.76872249e-04
1.35000000e+00	5.15116205e-03	1.79170824e-04
1.35500000e+00	5.14655711e-03	1.76623516e-04
1.36000000e+00	5.19643324e-03	1.77963391e-04
1.36500000e+00	5.21331679e-03	1.79144873e-04
1.37000000e+00	5.21165210e-03	1.81875295e-04
1.37500000e+00	5.25983426e-03	1.80688569e-04
1.38000000e+00	5.25053379e-03	1.80729886e-04
1.38500000e+00	5.27933217e-03	1.82669768e-04
1.39000000e+00	5.30406367e-03	1.84713583e-04
1.39500000e+00	5.31159096e-03	1.82258456e-04
1.40000000e+00	5.39746443e-03	1.90799882e-04
1.40500000e+00	5.34004701e-03	2.03229917e-04
1.41000000e+00	5.37364954e-03	2.14142872e-04
1.41500000e+00	5.40480403e-03	2.23168122e-04
1.42000000e+00	5.42129448e-03	2.32759231e-04
1.42500000e+00	5.51217801e-03	2.43871160e-04
1.43000000e+00	5.59202888e-03	2.56611803e-04
1.43500000e+00	5.68264570e-03	2.68791312e-04
1.44000000e+00	5.80371150e-03	2.84945679e-04
1.44500000e+00	5.78003583e-03	2.91427952e-04
1.45000000e+00	5.97100176e-03	2.91074332e-04
1.45500000e+00	5.94493039e-03	2.60376193e-04
1.46000000e+00	5.90926696e-03	2.52675263e-04
1.46500000e+00	5.76619951e-03	2.42174370e-04
1.47000000e+00	5.78140461e-03	2.43199303e-04
1.47500000e+00	5.68059311e-03	2.31281048e-04
1.48000000e+00	5.60024677e-03	2.25490521e-04
1.48500000e+00	5.56943518e-03	2.24509897e-04
1.49000000e+00	5.54381522e-03	2.23953372e-04
1.49500000e+00	5.54873604e-03	2.19253013e-04
1.50000000e+00	5.51191714e-03	2.17082474e-04
1.50500000e+00	5.54369211e-03	2.19508273e-04
1.51000000e+00	5.53991461e-03	2.19907024e-04
1.51500000e+00	5.54111119e-03	2.16390455e-04
1.52000000e+00	5.65415355e-03	2.20030791e-04
1.52500000e+00	5.69390622e-03	2.21310770e-04
1.53000000e+00	5.67327417e-03	2.21747705e-04
1.53500000e+00	5.66096450e-03	2.15101458e-04
1.54000000e+00	5.61557369e-03	2.13006924e-04
1.54500000e+00	5.58718299e-03	2.11462794e-04
1.55000000e+00	5.49219618e-03	2.07291551e-04
1.55500000e+00	5.45093495e-03	2.01181368e-04
1.56000000e+00	5.38027556e-03	1.98949937e-04
1.56500000e+00	5.29255538e-03	1.94715553e-04
1.57000000e+00	5.24944120e-03	1.91766697e-04
1.57500000e+00	5.22321886e-03	1.87236597e-04
1.58000000e+00	5.18654958e-03	1.85613919e-04
1.58500000e+00	5.18950663e-03	1.85752604e-04
1.59000000e+00	5.17904220e-03	1.85454999e-04
1.59500000e+00	5.20417381e-03	1.82801292e-04
1.60000000e+00	5.19142216e-03	1.82208617e-04
1.60500000e+00	5.19358943e-03	1.82334045e-04
1.61000000e+00	5.19067576e-03	1.81571111e-04
1.61500000e+00	5.18655085e-03	1.79743058e-04
1.62000000e+00	5.14790718e-03	1.79202438e-04
1.62500000e+00	5.15577914e-03	1.81563394e-04
1.63000000e+00	5.12005322e-03	1.78341238e-04
1.63500000e+00	5.10439193e-03	1.77816853e-04
1.64000000e+00	5.07223313e-03	1.76764927e-04
1.64500000e+00	5.02201197e-03	1.76995229e-04
1.65000000e+00	5.01939446e-03	1.74912020e-04
1.65500000e+00	4.98707491e-03	1.73603738e-04
1.66000000e+00	4.94604130e-03	1.72369465e-04
1.66500000e+00	4.88368620e-03	1.73095368e-04
1.67000000e+00	4.87373145e-03	1.69163925e-04
1.67500000e+00	4.85544117e-03	1.68962314e-04
1.68000000e+00	4.81623350e-03	1.68074952e-04
1.68500000e+00	4.79457425e-03	1.70108173e-04
1.69000000e+00	4.76839628e-03	1.65907871e-04
1.69500000e+00	4.74811795e-03	1.64899857e-04
1.70000000e+00	4.72631847e-03	1.66047430e-04
1.70500000e+00	4.67649992e-03	1.65067767e-04
1.71000000e+00	4.67567144e-03	1.62940695e-04
1.71500000e+00	4.62763110e-03	1.61105208e-04
1.72000000e+00	4.63808788e-03	1.62758852e-04
1.72500000e+00	4.61020319e-03	1.62754924e-04
1.73000000e+00	4.57973962e-03	1.59580133e-04
1.73500000e+00	4.55134927e-03	1.59112409e-04
1.74000000e+00	4.54424578e-03	1.59217781e-04
1.74500000e+00	4.51157919e-03	1.59863718e-04
1.75000000e+00	4.50714699e-03	1.56630364e-04
1.75500000e+00	4.49142293e-03	1.57096739e-04
1.76000000e+00	4.44239722e-03	1.55355190e-04
1.76500000e+00	4.43028646e-03	1.56879901e-04
1.77000000e+00	4.42033030e-03	1.53970470e-04
1.77500000e+00	4.43747981e-03	1.54992197e-04
1.78000000e+00	4.37673457e-03	1.53335896e-04
1.78500000e+00	4.36160901e-03	1.54449264e-04
1.79000000e+00	4.35772085e-03	1.51644009e-04
1.79500000e+00	4.36588749e-03	1.52407890e-04
1.80000000e+00	4.34529112e-03	1.52626444e-04
1.80500000e+00	4.31601822e-03	1.52591627e-04
1.81000000e+00	4.32355078e-03	1.50572891e-04
1.81500000e+00	4.32298584e-03	1.50633750e-04
1.82000000e+00	4.28658450e-03	1.50410234e-04
1.82500000e+00	4.29249076e-03	1.51472165e-04
1.83000000e+00	4.28557396e-03	1.49343864e-04
1.83500000e+00	4.30017236e-03	1.50113342e-04
1.84000000e+00	4.28749048e-03	1.50552290e-04
1.84500000e+00	4.27332516e-03	1.50868142e-04
1.85000000e+00	4.28151080e-03	1.49401820e-04
1.85500000e+00	4.32360304e-03	1.50935294e-04
1.86000000e+00	4.41020831e-03	1.54985073e-04
1.86500000e+00	4.42033394e-03	1.55763825e-04
1.87000000e+00	4.37249589e-03	1.52434876e-04
1.87500000e+00	4.32525818e-03	1.51293740e-04
1.88000000e+00	4.28943267e-03	1.50657149e-04
1.88500000e+00	4.25416070e-03	1.50215217e-04
1.89000000e+00	4.23070684e-03	1.47393921e-04
1.89500000e+00	4.17368460e-03	1.46288695e-04
1.90000000e+00	4.16687300e-03	1.46411580e-04
1.90500000e+00	4.11767371e-03	1.44740560e-04
1.91000000e+00	4.09699181e-03	1.43079485e-04
1.91500000e+00	4.09266108e-03	1.42994452e-04
1.92000000e+00	4.06317107e-03	1.42828117e-04
1.92500000e+00	4.02777588e-03	1.41659099e-04
1.93000000e+00	4.01847627e-03	1.40134729e-04
1.93500000e+00	3.99226636e-03	1.39558725e-04
1.94000000e+00	3.97236334e-03	1.40034159e-04
1.94500000e+00	3.94961645e-03	1.38825906e-04
1.95000000e+00	3.96100909e-03	1.37974552e-04
1.95500000e+00	3.97162462e-03	1.38900440e-04
1.96000000e+00	3.94909659e-03	1.38939479e-04
1.96500000e+00	3.89814307e-03	1.37242350e-04
1.97000000e+00	3.90281054e-03	1.35797159e-04
1.97500000e+00	3.89236575e-03	1.36325371e-04
1.98000000e+00	3.90160518e-03	1.37179024e-04
1.98500000e+00	3.83366973e-03	1.35115590e-04
1.99000000e+00	3.83222445e-03	1.33326504e-04
1.99500000e+00	3.79820015e-03	1.32798662e-04
2.00000000e+00	3.78209742e-03	1.33076107e-04
2.00500000e+00	3.84215798e-03	1.35440437e-04
2.01000000e+00	3.78444380e-03	1.46486602e-04
2.01500000e+00	3.76269626e-03	1.54683706e-04
2.02000000e+00	3.76635563e-03	1.65007587e-04
2.02500000e+00	3.70661980e-03	1.68751625e-04
2.03000000e+00	3.65349582e-03	1.76199592e-04
2.03500000e+00	3.62673299e-03	1.82776069e-04
2.04000000e+00	3.60205386e-03	1.89727544e-04
2.04500000e+00	3.57821669e-03	1.98280477e-04
2.05000000e+00	3.61919685e-03	2.10571857e-04
2.05500000e+00	3.59668460e-03	2.05112529e-04
2.06000000e+00	3.61513318e-03	1.79238977e-04
2.06500000e+00	3.64575137e-03	1.72791541e-04
2.07000000e+00	3.61953992e-03	1.62346954e-04
2.07500000e+00	3.63480352e-03	1.59547050e-04
2.08000000e+00	3.60380396e-03	1.57774793e-04
2.08500000e+00	3.59599335e-03	1.56110796e-04
2.09000000e+00	3.61426602e-03	1.52180824e-04
2.09500000e+00	3.64989372e-03	1.52658370e-04
2.10000000e+00	3.67809289e-03	1.53115470e-04
2.10500000e+00	3.61532903e-03	1.52595358e-04
2.11000000e+00	3.52320358e-03	1.39913026e-04
2.11500000e+00	3.52337873e-03	1.38582861e-04
2.12000000e+00	3.49100036e-03	1.36491000e-04
2.12500000e+00	3.46118934e-03	1.34965002e-04
2.13000000e+00	3.45655296e-03	1.29275386e-04
2.13500000e+00	3.45192483e-03	1.27620687e-04
2.14000000e+00	3.39506350e-03	1.24365217e-04
2.14500000e+00	3.39352916e-03	1.24679014e-04
2.15000000e+00	3.38950064e-03	1.20381708e-04
2.15500000e+00	3.38848659e-03	1.20554954e-04
2.16000000e+00	3.38003245e-03	1.19693926e-04
2.16500000e+00	3.36784259e-03	1.20048162e-04
2.17000000e+00	3.50882258e-03	1.76748047e-04
2.17500000e+00	3.66452450e-03	2.04365641e-04
2.18000000e+00	3.34312035e-03	1.17079776e-04
2.18500000e+00	3.32757710e-03	1.17051467e-04
2.19000000e+00	3.28512976e-03	1.15189190e-04
2.19500000e+00	3.28368570e-03	1.14427926e-04
2.20000000e+00	3.25278750e-03	1.13661197e-04
2.20500000e+00	3.25292126e-03	1.14042557e-04
2.21000000e+00	3.24013745e-03	1.14184084e-04
2.21500000e+00	3.19643778e-03	1.11408699e-04
2.22000000e+00	3.21335690e-03	1.11830444e-04
2.22500000e+00	3.19941413e-03	1.12333068e-04
2.23000000e+00	3.17541449e-03	1.12133099e-04
2.23500000e+00	3.24676864e-03	1.13701731e-04
2.24000000e+00	3.38108103e-03	1.29786316e-04
2.24500000e+00	3.14908733e-03	1.10593570e-04
2.25000000e+00	3.11389807e-03	1.10231387e-04
2.25500000e+00	3.07204269e-03	1.06750333e-04
2.26000000e+00	3.07297447e-03	1.07189455e-04
2.26500000e+00	3.03923286e-03	1.06375608e-04
2.27000000e+00	3.01330040e-03	1.07062328e-04
2.27500000e+00	3.01031887e-03	1.04801801e-04
2.28000000e+00	2.99209350e-03	1.04155871e-04
2.28500000e+00	2.97160719e-03	1.04295408e-04
2.29000000e+00	2.94809150e-03	1.04033799e-04
2.29500000e+00	2.93994649e-03	1.03412906e-04
2.30000000e+00	2.92028106e-03	1.01856670e-04
2.30500000e+00	2.88187570e-03	1.00820277e-04
2.31000000e+00	2.90843851e-03	1.02297337e-04
2.31500000e+00	2.86865450e-03	1.01744706e-04
2.32000000e+00	2.85682282e-03	9.93785692e-05
2.32500000e+00	2.85706137e-03	1.00230784e-04
2.33000000e+00	2.81101037e-03	9.88380434e-05
2.33500000e+00	2.80400640e-03	9.95539211e-05
2.34000000e+00	2.77777255e-03	9.70177837e-05
2.34500000e+00	2.76608154e-03	9.66233723e-05
2.35000000e+00	2.75612761e-03	9.67887960e-05
2.35500000e+00	2.74991931e-03	9.77929766e-05
2.36000000e+00	2.75102223e-03	9.66038109e-05
2.36500000e+00	2.73080580e-03	9.58076805e-05
2.37000000e+00	2.71051078e-03	9.50788709e-05
2.37500000e+00	2.67458729e-03	9.47845753e-05
2.38000000e+00	2.68065948e-03	9.54007400e-05
2.38500000e+00	2.68268190e-03	9.39902736e-05
2.39000000e+00	2.67038414e-03	9.39051606e-05
2.39500000e+00	2.66721876e-03	9.44941775e-05
2.40000000e+00	2.61835990e-03	9.40250502e-05
2.40500000e+00	2.62140613e-03	9.21832230e-05
2.41000000e+00	2.62338636e-03	9.27308203e-05
2.41500000e+00	2.61562170e-03	9.24198961e-05
2.42000000e+00	2.61002434e-03	9.33925056e-05
2.42500000e+00	2.64843043e-03	9.47974569e-05
2.43000000e+00	2.83788495e-03	1.00811860e-04
2.43500000e+00	2.91456869e-03	1.03879343e-04
2.44000000e+00	2.70426584e-03	9.66183879e-05
2.44500000e+00	2.56574399e-03	9.28186229e-05
2.45000000e+00	2.53620954e-03	9.00089209e-05
2.45500000e+00	2.50196169e-03	8.92046450e-05
2.46000000e+00	2.49085548e-03	8.91246519e-05
2.46500000e+00	2.45407929e-03	8.90310225e-05
2.47000000e+00	2.45477825e-03	8.80501795e-05
2.47500000e+00	2.44160182e-03	8.72098223e-05
2.48000000e+00	2.40365202e-03	8.66450219e-05
2.48500000e+00	2.39860538e-03	8.64560511e-05
2.49000000e+00	2.36000677e-03	8.63401569e-05
2.49500000e+00	2.37407490e-03	8.51784966e-05
2.50000000e+00	2.36424292e-03	8.50609793e-05
2.50500000e+00	2.35670269e-03	8.52572344e-05
2.51000000e+00	2.35149584e-03	8.58439768e-05
2.51500000e+00	2.34328563e-03	8.57417484e-05
2.52000000e+00	2.34283206e-03	8.49035391e-05
2.52500000e+00	2.29237785e-03	8.34963616e-05
2.53000000e+00	2.27168498e-03	8.35181264e-05
2.53500000e+00	2.28247090e-03	8.48855080e-05
2.54000000e+00	2.26244526e-03	8.28047134e-05
2.54500000e+00	2.22460915e-03	8.18922496e-05
2.55000000e+00	2.21718408e-03	8.19940671e-05
2.55500000e+00	2.18030645e-03	8.11368679e-05
2.56000000e+00	2.13728539e-03	7.99986305e-05
2.56500000e+00	2.13279878e-03	7.91639376e-05
2.57000000e+00	2.09042030e-03	7.79141099e-05
2.57500000e+00	2.09001974e-03	7.81216666e-05
2.58000000e+00	2.02930144e-03	7.70750468e-05
2.58500000e+00	2.02884146e-03	7.65189206e-05
2.59000000e+00	2.00675991e-03	7.54762039e-05
2.59500000e+00	1.98837611e-03	7.49741172e-05
2.60000000e+00	1.94416003e-03	7.38394481e-05
2.60500000e+00	1.92111119e-03	7.47632231e-05
2.61000000e+00	1.86124324e-03	8.29002521e-05
2.61500000e+00	1.80181783e-03	8.91640610e-05
2.62000000e+00	1.84619681e-03	1.00243658e-04
2.62500000e+00	1.86385807e-03	1.08831659e-04
2.63000000e+00	1.89399165e-03	1.21783160e-04
2.63500000e+00	1.96002200e-03	1.38636632e-04
2.64000000e+00	1.94210532e-03	1.51405437e-04
2.64500000e+00	1.86487164e-03	1.55772293e-04
2.65000000e+00	1.76413612e-03	1.56323651e-04
2.65500000e+00	1.66460815e-03	1.58872718e-04
2.66000000e+00	1.53440662e-03	1.58045737e-04
2.66500000e+00	1.41388197e-03	1.61854377e-04
2.67000000e+00	1.22901152e-03	1.52064598e-04
2.67500000e+00	1.19673685e-03	1.72083675e-04
2.68000000e+00	1.22349559e-03	2.06005341e-04
2.68500000e+00	1.06702021e-03	2.36695958e-04
2.69000000e+00	1.22051456e-03	4.38887757e-04
2.69500000e+00	0.00000000e+00	0.00000000e+00
2.70000000e+00	0.00000000e+00	0.00000000e+00
