% Filename : WB3_00041_00026.h5
% Date & Time : 30-Oct-2025 17:58:01
% X-ray Energy (keV) : 13.30001
% Exposure Time (s) : 0.500
% Photodiode Value : 139471.000
% I0 of Sample : 0
% I0 of Standard : 1
% 
% q(A^-1)   I(q)    I(q)_SE
8.40000000e-01	0.00000000e+00	0.00000000e+00
8.45000000e-01	5.65237228e-03	9.88913416e-04
8.50000000e-01	5.46261393e-03	5.04977857e-04
8.55000000e-01	5.21760374e-03	4.24992751e-04
8.60000000e-01	5.18343863e-03	3.65604566e-04
8.65000000e-01	5.13099906e-03	3.33137648e-04
8.70000000e-01	5.12404304e-03	3.17322073e-04
8.75000000e-01	5.08451213e-03	3.02984302e-04
8.80000000e-01	5.08739031e-03	2.93052341e-04
8.85000000e-01	5.07886888e-03	2.76524483e-04
8.90000000e-01	5.05123879e-03	2.69165594e-04
8.95000000e-01	5.10242544e-03	2.64234713e-04
9.00000000e-01	5.04245458e-03	2.58667905e-04
9.05000000e-01	5.05237156e-03	2.47919883e-04
9.10000000e-01	5.03788045e-03	2.42585869e-04
9.15000000e-01	5.04455022e-03	2.39096902e-04
9.20000000e-01	5.05444591e-03	2.39286964e-04
9.25000000e-01	5.04097202e-03	2.28145891e-04
9.30000000e-01	5.07805851e-03	2.27689021e-04
9.35000000e-01	5.02900352e-03	2.21074601e-04
9.40000000e-01	5.04555581e-03	2.22462865e-04
9.45000000e-01	5.00673134e-03	2.15134467e-04
9.50000000e-01	4.98740051e-03	2.11291001e-04
9.55000000e-01	5.04979681e-03	2.10156756e-04
9.60000000e-01	5.03383486e-03	2.09551401e-04
9.65000000e-01	5.04685079e-03	2.06448550e-04
9.70000000e-01	5.02689086e-03	2.02467710e-04
9.75000000e-01	5.04866269e-03	2.00998727e-04
9.80000000e-01	5.04408070e-03	1.99199683e-04
9.85000000e-01	5.02547314e-03	1.98520174e-04
9.90000000e-01	5.05671800e-03	1.93746506e-04
9.95000000e-01	5.03582335e-03	1.92019064e-04
1.00000000e+00	5.02430403e-03	1.90581710e-04
1.00500000e+00	5.05073996e-03	1.91535335e-04
1.01000000e+00	5.04684165e-03	1.87460692e-04
1.01500000e+00	5.05445366e-03	1.85748026e-04
1.02000000e+00	5.05606182e-03	1.85742385e-04
1.02500000e+00	5.05395811e-03	1.83270872e-04
1.03000000e+00	5.07968625e-03	1.83555334e-04
1.03500000e+00	5.03245011e-03	1.79307818e-04
1.04000000e+00	5.07791563e-03	1.79597617e-04
1.04500000e+00	5.09973594e-03	1.80355027e-04
1.05000000e+00	5.07598166e-03	1.78257533e-04
1.05500000e+00	5.07250657e-03	1.75360197e-04
1.06000000e+00	5.07340868e-03	1.74947692e-04
1.06500000e+00	5.12516357e-03	1.76838686e-04
1.07000000e+00	5.11898123e-03	1.76344087e-04
1.07500000e+00	5.16359454e-03	1.76562166e-04
1.08000000e+00	5.20162873e-03	1.76900066e-04
1.08500000e+00	5.22930714e-03	1.78020951e-04
1.09000000e+00	5.27060063e-03	1.80443019e-04
1.09500000e+00	5.28698189e-03	1.77415738e-04
1.10000000e+00	5.30132873e-03	1.79109503e-04
1.10500000e+00	5.32424501e-03	1.80386049e-04
1.11000000e+00	5.32986270e-03	1.80875433e-04
1.11500000e+00	5.34581990e-03	1.80141559e-04
1.12000000e+00	5.40136314e-03	1.82766176e-04
1.12500000e+00	5.42615930e-03	1.83163019e-04
1.13000000e+00	5.44452004e-03	1.85986938e-04
1.13500000e+00	5.48279226e-03	1.85108670e-04
1.14000000e+00	5.50515634e-03	1.85427021e-04
1.14500000e+00	5.52779549e-03	1.87850607e-04
1.15000000e+00	5.55177887e-03	1.89604588e-04
1.15500000e+00	5.62387950e-03	1.90146028e-04
1.16000000e+00	5.66338551e-03	1.92029854e-04
1.16500000e+00	5.66293709e-03	1.91867519e-04
1.17000000e+00	5.65476847e-03	1.94027235e-04
1.17500000e+00	5.72417329e-03	1.93585608e-04
1.18000000e+00	5.79856253e-03	1.96994605e-04
1.18500000e+00	5.79219845e-03	1.96530385e-04
1.19000000e+00	5.88244751e-03	2.01793136e-04
1.19500000e+00	5.89299592e-03	1.99596547e-04
1.20000000e+00	5.96156260e-03	2.03046267e-04
1.20500000e+00	5.98622685e-03	2.03603041e-04
1.21000000e+00	6.01237240e-03	2.07114475e-04
1.21500000e+00	6.06655450e-03	2.05724418e-04
1.22000000e+00	6.11922589e-03	2.07765723e-04
1.22500000e+00	6.13209467e-03	2.08963607e-04
1.23000000e+00	6.16666607e-03	2.11767591e-04
1.23500000e+00	6.20649868e-03	2.11775185e-04
1.24000000e+00	6.26880704e-03	2.12877601e-04
1.24500000e+00	6.32066517e-03	2.16273264e-04
1.25000000e+00	6.35785067e-03	2.18848096e-04
1.25500000e+00	6.41983471e-03	2.18420389e-04
1.26000000e+00	6.45270347e-03	2.20776595e-04
1.26500000e+00	6.46856127e-03	2.20534258e-04
1.27000000e+00	6.51292024e-03	2.25330191e-04
1.27500000e+00	6.61034492e-03	2.26398219e-04
1.28000000e+00	6.61022110e-03	2.24895702e-04
1.28500000e+00	6.65279942e-03	2.27754206e-04
1.29000000e+00	6.72259795e-03	2.32129145e-04
1.29500000e+00	6.75895407e-03	2.30942503e-04
1.30000000e+00	6.77323481e-03	2.30967002e-04
1.30500000e+00	6.84361896e-03	2.34458500e-04
1.31000000e+00	6.88413336e-03	2.38628349e-04
1.31500000e+00	6.90454897e-03	2.36370505e-04
1.32000000e+00	6.95428478e-03	2.37826260e-04
1.32500000e+00	7.01122552e-03	2.40488570e-04
1.33000000e+00	7.05366612e-03	2.44771323e-04
1.33500000e+00	7.11993408e-03	2.43703649e-04
1.34000000e+00	7.12859169e-03	2.44350141e-04
1.34500000e+00	7.19114534e-03	2.47311095e-04
1.35000000e+00	7.23730109e-03	2.51286012e-04
1.35500000e+00	7.26792798e-03	2.48982770e-04
1.36000000e+00	7.27968651e-03	2.49186587e-04
1.36500000e+00	7.32776118e-03	2.51434358e-04
1.37000000e+00	7.33600684e-03	2.55391979e-04
1.37500000e+00	7.36454501e-03	2.52466499e-04
1.38000000e+00	7.40478768e-03	2.54502738e-04
1.38500000e+00	7.42059341e-03	2.56333884e-04
1.39000000e+00	7.43084698e-03	2.58423477e-04
1.39500000e+00	7.45525277e-03	2.55398330e-04
1.40000000e+00	7.58555553e-03	2.67689041e-04
1.40500000e+00	7.50618051e-03	2.85188572e-04
1.41000000e+00	7.51778232e-03	2.98970007e-04
1.41500000e+00	7.56361793e-03	3.11710368e-04
1.42000000e+00	7.58409406e-03	3.25120886e-04
1.42500000e+00	7.65548437e-03	3.37870707e-04
1.43000000e+00	7.74791198e-03	3.54895770e-04
1.43500000e+00	7.82147241e-03	3.69248878e-04
1.44000000e+00	7.88487143e-03	3.86682055e-04
1.44500000e+00	7.96655318e-03	4.00763946e-04
1.45000000e+00	8.08523919e-03	3.93182974e-04
1.45500000e+00	8.06689483e-03	3.52408203e-04
1.46000000e+00	7.96548168e-03	3.39990837e-04
1.46500000e+00	7.90741148e-03	3.31571944e-04
1.47000000e+00	7.82371543e-03	3.27423366e-04
1.47500000e+00	7.86800857e-03	3.19829183e-04
1.48000000e+00	7.73492639e-03	3.11084714e-04
1.48500000e+00	7.69270860e-03	3.09521734e-04
1.49000000e+00	7.63609011e-03	3.08125209e-04
1.49500000e+00	7.57289329e-03	2.98747500e-04
1.50000000e+00	7.58868945e-03	2.98350343e-04
1.50500000e+00	7.63951380e-03	3.02017837e-04
1.51000000e+00	7.61584387e-03	3.01718210e-04
1.51500000e+00	7.70616315e-03	3.00399825e-04
1.52000000e+00	7.76532721e-03	3.01789548e-04
1.52500000e+00	7.80594797e-03	3.03139409e-04
1.53000000e+00	7.80953781e-03	3.05020937e-04
1.53500000e+00	7.74316297e-03	2.93862555e-04
1.54000000e+00	7.68479208e-03	2.91170393e-04
1.54500000e+00	7.56462551e-03	2.86081782e-04
1.55000000e+00	7.49669337e-03	2.82636821e-04
1.55500000e+00	7.45880201e-03	2.75003105e-04
1.56000000e+00	7.38702283e-03	2.72856736e-04
1.56500000e+00	7.28236000e-03	2.67585344e-04
1.57000000e+00	7.24675739e-03	2.64493118e-04
1.57500000e+00	7.21162298e-03	2.58219673e-04
1.58000000e+00	7.17266905e-03	2.56283005e-04
1.58500000e+00	7.14899282e-03	2.55445829e-04
1.59000000e+00	7.13249151e-03	2.55010634e-04
1.59500000e+00	7.11315418e-03	2.49460303e-04
1.60000000e+00	7.05940467e-03	2.47397756e-04
1.60500000e+00	7.13764433e-03	2.50271240e-04
1.61000000e+00	7.08058615e-03	2.47208750e-04
1.61500000e+00	7.08099154e-03	2.45039757e-04
1.62000000e+00	7.11971808e-03	2.47464711e-04
1.62500000e+00	7.03483204e-03	2.47311447e-04
1.63000000e+00	7.06691552e-03	2.45839353e-04
1.63500000e+00	7.04504102e-03	2.45024398e-04
1.64000000e+00	6.98851029e-03	2.43214140e-04
1.64500000e+00	6.94477049e-03	2.44311017e-04
1.65000000e+00	6.95436871e-03	2.42015112e-04
1.65500000e+00	6.91508515e-03	2.40375465e-04
1.66000000e+00	6.87182324e-03	2.39087360e-04
1.66500000e+00	6.84848184e-03	2.42319869e-04
1.67000000e+00	6.79942329e-03	2.35639592e-04
1.67500000e+00	6.79657640e-03	2.36104457e-04
1.68000000e+00	6.74591445e-03	2.35003923e-04
1.68500000e+00	6.71778358e-03	2.37972095e-04
1.69000000e+00	6.69043018e-03	2.32425826e-04
1.69500000e+00	6.68555274e-03	2.31814573e-04
1.70000000e+00	6.56983376e-03	2.30422235e-04
1.70500000e+00	6.60338809e-03	2.32671675e-04
1.71000000e+00	6.56407730e-03	2.28265988e-04
1.71500000e+00	6.53949682e-03	2.27332400e-04
1.72000000e+00	6.49367184e-03	2.27554166e-04
1.72500000e+00	6.49139427e-03	2.28820845e-04
1.73000000e+00	6.44269265e-03	2.24171311e-04
1.73500000e+00	6.42489714e-03	2.24126137e-04
1.74000000e+00	6.42372256e-03	2.24894665e-04
1.74500000e+00	6.35563443e-03	2.24852132e-04
1.75000000e+00	6.35014307e-03	2.20265733e-04
1.75500000e+00	6.28529742e-03	2.19579876e-04
1.76000000e+00	6.24970781e-03	2.18208946e-04
1.76500000e+00	6.22382763e-03	2.20067842e-04
1.77000000e+00	6.19878437e-03	2.15491424e-04
1.77500000e+00	6.19661938e-03	2.16006001e-04
1.78000000e+00	6.13605228e-03	2.14605682e-04
1.78500000e+00	6.09505479e-03	2.15402985e-04
1.79000000e+00	6.07453389e-03	2.11059308e-04
1.79500000e+00	6.07616442e-03	2.11802580e-04
1.80000000e+00	6.01883216e-03	2.10994061e-04
1.80500000e+00	6.03683313e-03	2.12917087e-04
1.81000000e+00	5.98511544e-03	2.08147823e-04
1.81500000e+00	5.99416189e-03	2.08525571e-04
1.82000000e+00	6.00143229e-03	2.10217887e-04
1.82500000e+00	5.97351683e-03	2.10477539e-04
1.83000000e+00	5.93733889e-03	2.06504505e-04
1.83500000e+00	5.90889770e-03	2.06044209e-04
1.84000000e+00	5.92886023e-03	2.07782740e-04
1.84500000e+00	5.89959038e-03	2.07942801e-04
1.85000000e+00	5.89372973e-03	2.05362907e-04
1.85500000e+00	5.92173962e-03	2.06473057e-04
1.86000000e+00	5.99442738e-03	2.10297985e-04
1.86500000e+00	5.97067173e-03	2.10056995e-04
1.87000000e+00	5.98970104e-03	2.08458586e-04
1.87500000e+00	5.91314474e-03	2.06423689e-04
1.88000000e+00	5.85534752e-03	2.05255231e-04
1.88500000e+00	5.77769403e-03	2.03734277e-04
1.89000000e+00	5.73330346e-03	1.99425894e-04
1.89500000e+00	5.70451111e-03	1.99496635e-04
1.90000000e+00	5.68869553e-03	1.99514343e-04
1.90500000e+00	5.64073024e-03	1.97903794e-04
1.91000000e+00	5.63796965e-03	1.96577550e-04
1.91500000e+00	5.60289508e-03	1.95478455e-04
1.92000000e+00	5.54490246e-03	1.94487632e-04
1.92500000e+00	5.51363510e-03	1.93681394e-04
1.93000000e+00	5.47716260e-03	1.90632119e-04
1.93500000e+00	5.47499613e-03	1.91170579e-04
1.94000000e+00	5.44236886e-03	1.91579129e-04
1.94500000e+00	5.42223360e-03	1.90206004e-04
1.95000000e+00	5.41135232e-03	1.88111320e-04
1.95500000e+00	5.36177036e-03	1.87205097e-04
1.96000000e+00	5.35940666e-03	1.88272730e-04
1.96500000e+00	5.31296237e-03	1.86700597e-04
1.97000000e+00	5.30480558e-03	1.84206906e-04
1.97500000e+00	5.30370408e-03	1.85426204e-04
1.98000000e+00	5.26998743e-03	1.85037218e-04
1.98500000e+00	5.22719690e-03	1.83812841e-04
1.99000000e+00	5.20959535e-03	1.80921279e-04
1.99500000e+00	5.19596813e-03	1.81295926e-04
2.00000000e+00	5.22488183e-03	1.83501581e-04
2.00500000e+00	5.24405520e-03	1.84696176e-04
2.01000000e+00	5.19703508e-03	2.00832051e-04
2.01500000e+00	5.13117831e-03	2.10498555e-04
2.02000000e+00	5.09498420e-03	2.22789259e-04
2.02500000e+00	5.01574478e-03	2.27884020e-04
2.03000000e+00	5.01745642e-03	2.41530346e-04
2.03500000e+00	5.01412898e-03	2.52043514e-04
2.04000000e+00	4.97807448e-03	2.61614773e-04
2.04500000e+00	4.92937628e-03	2.72237148e-04
2.05000000e+00	4.92457083e-03	2.85838116e-04
2.05500000e+00	4.99616613e-03	2.84047498e-04
2.06000000e+00	4.97868666e-03	2.46407775e-04
2.06500000e+00	4.98327479e-03	2.35516835e-04
2.07000000e+00	4.89574367e-03	2.19087534e-04
2.07500000e+00	4.88275358e-03	2.13704593e-04
2.08000000e+00	4.88251254e-03	2.13309883e-04
2.08500000e+00	4.89478259e-03	2.12001925e-04
2.09000000e+00	4.89388887e-03	2.05751657e-04
2.09500000e+00	4.89585939e-03	2.03595466e-04
2.10000000e+00	4.83383291e-03	1.99672762e-04
2.10500000e+00	4.80437375e-03	1.97809972e-04
2.11000000e+00	4.78261745e-03	1.89719945e-04
2.11500000e+00	4.76932122e-03	1.87259957e-04
2.12000000e+00	4.72065818e-03	1.84386823e-04
2.12500000e+00	4.69541037e-03	1.82826505e-04
2.13000000e+00	4.70256512e-03	1.75586456e-04
2.13500000e+00	4.68580096e-03	1.72845875e-04
2.14000000e+00	4.64711602e-03	1.69870286e-04
2.14500000e+00	4.62815557e-03	1.69617429e-04
2.15000000e+00	4.61767193e-03	1.63681072e-04
2.15500000e+00	4.64673450e-03	1.64986829e-04
2.16000000e+00	4.60706436e-03	1.62751049e-04
2.16500000e+00	4.56692211e-03	1.62436096e-04
2.17000000e+00	4.57707785e-03	1.58869845e-04
2.17500000e+00	4.58200339e-03	1.59449045e-04
2.18000000e+00	4.54021147e-03	1.58429713e-04
2.18500000e+00	4.55429623e-03	1.59826092e-04
2.19000000e+00	4.50712349e-03	1.57645947e-04
2.19500000e+00	4.51318014e-03	1.56918974e-04
2.20000000e+00	4.46412743e-03	1.55638572e-04
2.20500000e+00	4.44438862e-03	1.55396808e-04
2.21000000e+00	4.43301950e-03	1.55845290e-04
2.21500000e+00	4.43668197e-03	1.54277767e-04
2.22000000e+00	4.39133843e-03	1.52558533e-04
2.22500000e+00	4.36417459e-03	1.52931308e-04
2.23000000e+00	4.37935741e-03	1.54427992e-04
2.23500000e+00	4.39620721e-03	1.53151578e-04
2.24000000e+00	4.42925158e-03	1.57463325e-04
2.24500000e+00	4.30960331e-03	1.51034913e-04
2.25000000e+00	4.29755777e-03	1.51903702e-04
2.25500000e+00	4.27821199e-03	1.48557697e-04
2.26000000e+00	4.21789246e-03	1.47029018e-04
2.26500000e+00	4.25379443e-03	1.48853513e-04
2.27000000e+00	4.20030526e-03	1.49186227e-04
2.27500000e+00	4.18296295e-03	1.45507429e-04
2.28000000e+00	4.14966898e-03	1.44453961e-04
2.28500000e+00	4.14884884e-03	1.45497073e-04
2.29000000e+00	4.10350396e-03	1.44762076e-04
2.29500000e+00	4.07732574e-03	1.43426926e-04
2.30000000e+00	4.02547765e-03	1.40434367e-04
2.30500000e+00	4.03079824e-03	1.40987216e-04
2.31000000e+00	4.01983580e-03	1.41323305e-04
2.31500000e+00	3.98363056e-03	1.41557605e-04
2.32000000e+00	3.96183937e-03	1.37778935e-04
2.32500000e+00	3.95536942e-03	1.38825252e-04
2.33000000e+00	3.92620384e-03	1.38229708e-04
2.33500000e+00	3.93477542e-03	1.40161825e-04
2.34000000e+00	3.92396676e-03	1.37212633e-04
2.34500000e+00	3.87870738e-03	1.35990496e-04
2.35000000e+00	3.87140510e-03	1.36206067e-04
2.35500000e+00	3.83260288e-03	1.36620279e-04
2.36000000e+00	3.83981539e-03	1.35039521e-04
2.36500000e+00	3.79889935e-03	1.33657213e-04
2.37000000e+00	3.78589854e-03	1.33333215e-04
2.37500000e+00	3.76563208e-03	1.33746250e-04
2.38000000e+00	3.75000402e-03	1.34059792e-04
2.38500000e+00	3.73767758e-03	1.31604600e-04
2.39000000e+00	3.72600303e-03	1.31970569e-04
2.39500000e+00	3.71421173e-03	1.32485491e-04
2.40000000e+00	3.65959806e-03	1.31888431e-04
2.40500000e+00	3.63142643e-03	1.28482148e-04
2.41000000e+00	3.64394189e-03	1.29340849e-04
2.41500000e+00	3.59210774e-03	1.27718986e-04
2.42000000e+00	3.58867622e-03	1.29392408e-04
2.42500000e+00	3.58701785e-03	1.29071200e-04
2.43000000e+00	3.51258348e-03	1.25256206e-04
2.43500000e+00	3.55206869e-03	1.27220913e-04
2.44000000e+00	3.51158395e-03	1.26144477e-04
2.44500000e+00	3.46847793e-03	1.26292362e-04
2.45000000e+00	3.46013068e-03	1.23859543e-04
2.45500000e+00	3.46023445e-03	1.24269594e-04
2.46000000e+00	3.42300821e-03	1.23438963e-04
2.46500000e+00	3.37977488e-03	1.23491458e-04
2.47000000e+00	3.40244383e-03	1.23158185e-04
2.47500000e+00	3.37277611e-03	1.21413910e-04
2.48000000e+00	3.35247292e-03	1.22065610e-04
2.48500000e+00	3.32514524e-03	1.21054348e-04
2.49000000e+00	3.30156684e-03	1.21953144e-04
2.49500000e+00	3.32970121e-03	1.20615415e-04
2.50000000e+00	3.27898332e-03	1.19170423e-04
2.50500000e+00	3.27262269e-03	1.19728967e-04
2.51000000e+00	3.26110424e-03	1.20408370e-04
2.51500000e+00	3.22285279e-03	1.19051933e-04
2.52000000e+00	3.23741891e-03	1.18509886e-04
2.52500000e+00	3.20379418e-03	1.17864726e-04
2.53000000e+00	3.17547184e-03	1.18238374e-04
2.53500000e+00	3.15138330e-03	1.18599797e-04
2.54000000e+00	3.14470093e-03	1.16608671e-04
2.54500000e+00	3.10600450e-03	1.15586193e-04
2.55000000e+00	3.08312541e-03	1.15392289e-04
2.55500000e+00	3.01439006e-03	1.13765803e-04
2.56000000e+00	2.92239559e-03	1.10944401e-04
2.56500000e+00	2.85005285e-03	1.07200861e-04
2.57000000e+00	2.74681670e-03	1.03979513e-04
2.57500000e+00	2.61540833e-03	9.92521065e-05
2.58000000e+00	2.55083249e-03	9.85898544e-05
2.58500000e+00	2.50101708e-03	9.57268784e-05
2.59000000e+00	2.40323256e-03	9.15921458e-05
2.59500000e+00	2.35438584e-03	9.00443046e-05
2.60000000e+00	2.28753501e-03	8.80454826e-05
2.60500000e+00	2.18683329e-03	8.58228035e-05
2.61000000e+00	2.08259542e-03	9.39098135e-05
2.61500000e+00	1.98047962e-03	9.90441479e-05
2.62000000e+00	2.00999663e-03	1.09793725e-04
2.62500000e+00	1.99603801e-03	1.17429475e-04
2.63000000e+00	2.01727689e-03	1.30315555e-04
2.63500000e+00	2.00200281e-03	1.42678473e-04
2.64000000e+00	1.95673133e-03	1.53068375e-04
2.64500000e+00	1.83300843e-03	1.54056213e-04
2.65000000e+00	1.68616682e-03	1.50820417e-04
2.65500000e+00	1.66210130e-03	1.59611836e-04
2.66000000e+00	1.47464163e-03	1.53033266e-04
2.66500000e+00	1.28580252e-03	1.46847468e-04
2.67000000e+00	1.18610105e-03	1.46139343e-04
2.67500000e+00	1.14065030e-03	1.65445595e-04
2.68000000e+00	1.09788979e-03	1.84487518e-04
2.68500000e+00	1.11318045e-03	2.45874454e-04
2.69000000e+00	1.21401804e-03	4.31954031e-04
2.69500000e+00	0.00000000e+00	0.00000000e+00
2.70000000e+00	0.00000000e+00	0.00000000e+00
