% Filename : WDL1_00002_00008.h5
% Date & Time : 30-Oct-2025 14:16:35
% X-ray Energy (keV) : 13.30001
% Exposure Time (s) : 0.200
% Photodiode Value : 56737.000
% I0 of Sample : 0
% I0 of Standard : 1
% 
% q(A^-1)   I(q)    I(q)_SE
8.40000000e-01	0.00000000e+00	0.00000000e+00
8.45000000e-01	2.84025237e-03	5.00883698e-04
8.50000000e-01	2.81893309e-03	2.65177286e-04
8.55000000e-01	2.69317000e-03	2.21599676e-04
8.60000000e-01	2.68980968e-03	1.92427131e-04
8.65000000e-01	2.69290090e-03	1.77078459e-04
8.70000000e-01	2.72431394e-03	1.70657880e-04
8.75000000e-01	2.70829785e-03	1.63291010e-04
8.80000000e-01	2.63451565e-03	1.53961710e-04
8.85000000e-01	2.66287922e-03	1.47301680e-04
8.90000000e-01	2.71439716e-03	1.46944020e-04
8.95000000e-01	2.68781381e-03	1.41329273e-04
9.00000000e-01	2.68384582e-03	1.39618378e-04
9.05000000e-01	2.72944238e-03	1.35906080e-04
9.10000000e-01	2.71564765e-03	1.32809946e-04
9.15000000e-01	2.72387116e-03	1.30787238e-04
9.20000000e-01	2.75775230e-03	1.32355336e-04
9.25000000e-01	2.75978783e-03	1.26675085e-04
9.30000000e-01	2.74787553e-03	1.24951629e-04
9.35000000e-01	2.75442513e-03	1.22721241e-04
9.40000000e-01	2.77041515e-03	1.23836914e-04
9.45000000e-01	2.75863990e-03	1.20191586e-04
9.50000000e-01	2.76102349e-03	1.18541795e-04
9.55000000e-01	2.77165314e-03	1.16680082e-04
9.60000000e-01	2.76191165e-03	1.16537534e-04
9.65000000e-01	2.75391501e-03	1.14330859e-04
9.70000000e-01	2.80181611e-03	1.14210101e-04
9.75000000e-01	2.79301361e-03	1.12991041e-04
9.80000000e-01	2.76822124e-03	1.11165493e-04
9.85000000e-01	2.81721335e-03	1.12993249e-04
9.90000000e-01	2.79195603e-03	1.08545470e-04
9.95000000e-01	2.75957405e-03	1.06800257e-04
1.00000000e+00	2.76062478e-03	1.06402603e-04
1.00500000e+00	2.76210249e-03	1.06330160e-04
1.01000000e+00	2.80405607e-03	1.05767835e-04
1.01500000e+00	2.77650391e-03	1.03693317e-04
1.02000000e+00	2.78218662e-03	1.03987796e-04
1.02500000e+00	2.78843023e-03	1.02827306e-04
1.03000000e+00	2.77670124e-03	1.02268190e-04
1.03500000e+00	2.78656762e-03	1.00925466e-04
1.04000000e+00	2.78260887e-03	1.00463432e-04
1.04500000e+00	2.73407240e-03	9.85823855e-05
1.05000000e+00	2.76042411e-03	9.88635596e-05
1.05500000e+00	2.74521583e-03	9.69581145e-05
1.06000000e+00	2.71560587e-03	9.59074454e-05
1.06500000e+00	2.74215319e-03	9.66938734e-05
1.07000000e+00	2.76196740e-03	9.73710868e-05
1.07500000e+00	2.79749799e-03	9.75543822e-05
1.08000000e+00	2.76742934e-03	9.60325565e-05
1.08500000e+00	2.80269612e-03	9.74254912e-05
1.09000000e+00	2.78587727e-03	9.72842504e-05
1.09500000e+00	2.76851289e-03	9.46036817e-05
1.10000000e+00	2.78334062e-03	9.60239930e-05
1.10500000e+00	2.81189669e-03	9.72897012e-05
1.11000000e+00	2.82102510e-03	9.77238759e-05
1.11500000e+00	2.82199985e-03	9.68250018e-05
1.12000000e+00	2.83922918e-03	9.77479462e-05
1.12500000e+00	2.85061798e-03	9.79860353e-05
1.13000000e+00	2.83954827e-03	9.89237255e-05
1.13500000e+00	2.87770772e-03	9.91216957e-05
1.14000000e+00	2.86060257e-03	9.81709063e-05
1.14500000e+00	2.85650927e-03	9.87765850e-05
1.15000000e+00	2.87450523e-03	9.99162356e-05
1.15500000e+00	2.88794294e-03	9.93153052e-05
1.16000000e+00	2.87624690e-03	9.92203619e-05
1.16500000e+00	2.88163116e-03	9.92479851e-05
1.17000000e+00	2.84113165e-03	9.91506712e-05
1.17500000e+00	2.87170758e-03	9.88719549e-05
1.18000000e+00	2.88619444e-03	9.97676246e-05
1.18500000e+00	2.91947452e-03	1.00777707e-04
1.19000000e+00	2.91622628e-03	1.01783551e-04
1.19500000e+00	2.91825161e-03	1.00439388e-04
1.20000000e+00	2.88625167e-03	9.98760346e-05
1.20500000e+00	2.88672100e-03	9.98625271e-05
1.21000000e+00	2.90463695e-03	1.02024300e-04
1.21500000e+00	2.93341260e-03	1.01140812e-04
1.22000000e+00	2.94083789e-03	1.01376640e-04
1.22500000e+00	2.94539193e-03	1.02167717e-04
1.23000000e+00	2.92587521e-03	1.02180444e-04
1.23500000e+00	2.94263961e-03	1.01898417e-04
1.24000000e+00	2.95531171e-03	1.01926266e-04
1.24500000e+00	2.97555006e-03	1.03510403e-04
1.25000000e+00	2.92131334e-03	1.02251027e-04
1.25500000e+00	2.92927809e-03	1.01454491e-04
1.26000000e+00	2.95695662e-03	1.02706460e-04
1.26500000e+00	2.96310286e-03	1.02627154e-04
1.27000000e+00	2.96909462e-03	1.04229386e-04
1.27500000e+00	2.99983742e-03	1.04361356e-04
1.28000000e+00	2.95717720e-03	1.02218941e-04
1.28500000e+00	2.94079848e-03	1.02169093e-04
1.29000000e+00	2.94575800e-03	1.03368687e-04
1.29500000e+00	2.99523874e-03	1.04073111e-04
1.30000000e+00	2.96921298e-03	1.02936133e-04
1.30500000e+00	2.97798403e-03	1.03750648e-04
1.31000000e+00	2.94350711e-03	1.03620457e-04
1.31500000e+00	2.92974230e-03	1.01892572e-04
1.32000000e+00	2.96398394e-03	1.02987777e-04
1.32500000e+00	2.94690809e-03	1.02593178e-04
1.33000000e+00	2.96166705e-03	1.04394304e-04
1.33500000e+00	2.95050477e-03	1.02599731e-04
1.34000000e+00	2.97267091e-03	1.03226835e-04
1.34500000e+00	2.96541285e-03	1.03669738e-04
1.35000000e+00	2.94637778e-03	1.03928314e-04
1.35500000e+00	2.96406672e-03	1.03135137e-04
1.36000000e+00	2.99364889e-03	1.04065973e-04
1.36500000e+00	2.96759430e-03	1.03490923e-04
1.37000000e+00	2.96510637e-03	1.04825622e-04
1.37500000e+00	2.97344772e-03	1.03529013e-04
1.38000000e+00	2.94662805e-03	1.02993196e-04
1.38500000e+00	2.96244173e-03	1.03992214e-04
1.39000000e+00	2.93946198e-03	1.03745381e-04
1.39500000e+00	2.93653249e-03	1.02094147e-04
1.40000000e+00	2.97632213e-03	1.06683626e-04
1.40500000e+00	2.95998272e-03	1.14299517e-04
1.41000000e+00	2.95328062e-03	1.19065770e-04
1.41500000e+00	2.93385893e-03	1.22710624e-04
1.42000000e+00	2.87170087e-03	1.25043903e-04
1.42500000e+00	2.82562795e-03	1.26888660e-04
1.43000000e+00	2.86784475e-03	1.33654791e-04
1.43500000e+00	2.86523708e-03	1.37818751e-04
1.44000000e+00	2.86764619e-03	1.42716967e-04
1.44500000e+00	2.85141404e-03	1.45745703e-04
1.45000000e+00	2.87569753e-03	1.42604763e-04
1.45500000e+00	2.88482514e-03	1.28046940e-04
1.46000000e+00	2.94064466e-03	1.27509215e-04
1.46500000e+00	2.90799269e-03	1.23771218e-04
1.47000000e+00	2.90780568e-03	1.23642760e-04
1.47500000e+00	2.82784669e-03	1.16720293e-04
1.48000000e+00	2.87704680e-03	1.17240664e-04
1.48500000e+00	2.91093934e-03	1.18886463e-04
1.49000000e+00	2.88057109e-03	1.17966081e-04
1.49500000e+00	2.88411434e-03	1.15603610e-04
1.50000000e+00	2.93538805e-03	1.17242576e-04
1.50500000e+00	2.92185648e-03	1.17309498e-04
1.51000000e+00	2.86612873e-03	1.15274985e-04
1.51500000e+00	2.91604969e-03	1.15308781e-04
1.52000000e+00	2.94986456e-03	1.16470704e-04
1.52500000e+00	2.92644071e-03	1.15172094e-04
1.53000000e+00	2.94426287e-03	1.16652543e-04
1.53500000e+00	2.93875558e-03	1.12960264e-04
1.54000000e+00	2.91637657e-03	1.12008030e-04
1.54500000e+00	2.88531388e-03	1.10560445e-04
1.55000000e+00	2.88226534e-03	1.10118368e-04
1.55500000e+00	2.86166528e-03	1.06916386e-04
1.56000000e+00	2.85999918e-03	1.07105122e-04
1.56500000e+00	2.84378722e-03	1.05985469e-04
1.57000000e+00	2.81165810e-03	1.04058455e-04
1.57500000e+00	2.82830394e-03	1.02748897e-04
1.58000000e+00	2.82785565e-03	1.02615611e-04
1.58500000e+00	2.79648508e-03	1.01310860e-04
1.59000000e+00	2.80235295e-03	1.01744052e-04
1.59500000e+00	2.83386007e-03	1.00890286e-04
1.60000000e+00	2.77347307e-03	9.86270767e-05
1.60500000e+00	2.78864115e-03	9.91287248e-05
1.61000000e+00	2.76835801e-03	9.80291574e-05
1.61500000e+00	2.80629621e-03	9.84212271e-05
1.62000000e+00	2.78417860e-03	9.82877718e-05
1.62500000e+00	2.79677319e-03	9.99740253e-05
1.63000000e+00	2.74237290e-03	9.68264467e-05
1.63500000e+00	2.73730378e-03	9.67189462e-05
1.64000000e+00	2.74280117e-03	9.68682039e-05
1.64500000e+00	2.74903497e-03	9.82323275e-05
1.65000000e+00	2.73369126e-03	9.66537710e-05
1.65500000e+00	2.73847639e-03	9.66876203e-05
1.66000000e+00	2.72831287e-03	9.64652308e-05
1.66500000e+00	2.69549082e-03	9.70317870e-05
1.67000000e+00	2.71470998e-03	9.55965496e-05
1.67500000e+00	2.71555955e-03	9.58312133e-05
1.68000000e+00	2.64985028e-03	9.38742211e-05
1.68500000e+00	2.71775470e-03	9.77081598e-05
1.69000000e+00	2.66747975e-03	9.41744585e-05
1.69500000e+00	2.65841460e-03	9.35110960e-05
1.70000000e+00	2.67062732e-03	9.50197448e-05
1.70500000e+00	2.68754060e-03	9.62165857e-05
1.71000000e+00	2.65534779e-03	9.39046637e-05
1.71500000e+00	2.65363110e-03	9.34986918e-05
1.72000000e+00	2.61957176e-03	9.33009325e-05
1.72500000e+00	2.65107658e-03	9.48143842e-05
1.73000000e+00	2.65468825e-03	9.36099841e-05
1.73500000e+00	2.62733754e-03	9.31090116e-05
1.74000000e+00	2.63695796e-03	9.36229854e-05
1.74500000e+00	2.63998696e-03	9.46867781e-05
1.75000000e+00	2.60245323e-03	9.15653330e-05
1.75500000e+00	2.61808414e-03	9.28898913e-05
1.76000000e+00	2.57577108e-03	9.13818051e-05
1.76500000e+00	2.57283366e-03	9.23081792e-05
1.77000000e+00	2.56050291e-03	9.04224653e-05
1.77500000e+00	2.59618767e-03	9.21460227e-05
1.78000000e+00	2.56810239e-03	9.11931076e-05
1.78500000e+00	2.56674609e-03	9.21420340e-05
1.79000000e+00	2.57127923e-03	9.08240084e-05
1.79500000e+00	2.54668210e-03	9.01300429e-05
1.80000000e+00	2.55232974e-03	9.07833956e-05
1.80500000e+00	2.55038481e-03	9.13120696e-05
1.81000000e+00	2.47689655e-03	8.75057152e-05
1.81500000e+00	2.50852907e-03	8.86708768e-05
1.82000000e+00	2.47750947e-03	8.81914656e-05
1.82500000e+00	2.50970388e-03	8.96707931e-05
1.83000000e+00	2.49375375e-03	8.80972556e-05
1.83500000e+00	2.45508189e-03	8.68832344e-05
1.84000000e+00	2.46206218e-03	8.75372586e-05
1.84500000e+00	2.44438772e-03	8.74564279e-05
1.85000000e+00	2.45128712e-03	8.66809359e-05
1.85500000e+00	2.46118093e-03	8.71978902e-05
1.86000000e+00	2.44702883e-03	8.72526156e-05
1.86500000e+00	2.43530715e-03	8.69512156e-05
1.87000000e+00	2.41502992e-03	8.54471697e-05
1.87500000e+00	2.43550998e-03	8.63130566e-05
1.88000000e+00	2.44106136e-03	8.68900083e-05
1.88500000e+00	2.41663421e-03	8.66855030e-05
1.89000000e+00	2.38971064e-03	8.43861536e-05
1.89500000e+00	2.38941384e-03	8.49368759e-05
1.90000000e+00	2.40038004e-03	8.54756666e-05
1.90500000e+00	2.38770610e-03	8.52881625e-05
1.91000000e+00	2.36998367e-03	8.40813928e-05
1.91500000e+00	2.35641287e-03	8.36587451e-05
1.92000000e+00	2.34149697e-03	8.35285660e-05
1.92500000e+00	2.36242772e-03	8.44064315e-05
1.93000000e+00	2.34879279e-03	8.32080080e-05
1.93500000e+00	2.35280975e-03	8.34351378e-05
1.94000000e+00	2.31509362e-03	8.29016279e-05
1.94500000e+00	2.32802536e-03	8.29839168e-05
1.95000000e+00	2.33324023e-03	8.24543110e-05
1.95500000e+00	2.31059360e-03	8.19883548e-05
1.96000000e+00	2.26959140e-03	8.11298039e-05
1.96500000e+00	2.32162511e-03	8.29317467e-05
1.97000000e+00	2.30668948e-03	8.16040255e-05
1.97500000e+00	2.28383839e-03	8.12103319e-05
1.98000000e+00	2.28422375e-03	8.16617229e-05
1.98500000e+00	2.28355835e-03	8.17924980e-05
1.99000000e+00	2.26220248e-03	7.99912136e-05
1.99500000e+00	2.24975893e-03	7.98604131e-05
2.00000000e+00	2.25123427e-03	8.03864462e-05
2.00500000e+00	2.27395827e-03	8.13572005e-05
2.01000000e+00	2.23686820e-03	8.80445871e-05
2.01500000e+00	2.21169868e-03	9.25193131e-05
2.02000000e+00	2.17491978e-03	9.70665068e-05
2.02500000e+00	2.17384971e-03	1.00574551e-04
2.03000000e+00	2.22433911e-03	1.09211010e-04
2.03500000e+00	2.16446914e-03	1.10818680e-04
2.04000000e+00	2.18526035e-03	1.17206063e-04
2.04500000e+00	2.14864206e-03	1.20930465e-04
2.05000000e+00	2.08875836e-03	1.23959027e-04
2.05500000e+00	2.11778725e-03	1.22617581e-04
2.06000000e+00	2.17494870e-03	1.09382854e-04
2.06500000e+00	2.14933246e-03	1.03296955e-04
2.07000000e+00	2.11957224e-03	9.66560853e-05
2.07500000e+00	2.11164580e-03	9.39515059e-05
2.08000000e+00	2.16143220e-03	9.60882377e-05
2.08500000e+00	2.10738903e-03	9.30321695e-05
2.09000000e+00	2.15452099e-03	9.20359022e-05
2.09500000e+00	2.11008721e-03	8.92261908e-05
2.10000000e+00	2.12169508e-03	8.92583920e-05
2.10500000e+00	2.10412996e-03	8.82327683e-05
2.11000000e+00	2.09410949e-03	8.47304268e-05
2.11500000e+00	2.08817933e-03	8.33104014e-05
2.12000000e+00	2.09673842e-03	8.32860781e-05
2.12500000e+00	2.05205146e-03	8.16185285e-05
2.13000000e+00	2.06886749e-03	7.88038274e-05
2.13500000e+00	2.05134190e-03	7.72356410e-05
2.14000000e+00	2.02804601e-03	7.55803971e-05
2.14500000e+00	1.98137444e-03	7.40476243e-05
2.15000000e+00	2.00415391e-03	7.23961227e-05
2.15500000e+00	1.99127863e-03	7.20654343e-05
2.16000000e+00	1.99216108e-03	7.18309395e-05
2.16500000e+00	1.96366606e-03	7.13375436e-05
2.17000000e+00	1.96252359e-03	6.94754370e-05
2.17500000e+00	1.93611242e-03	6.86489605e-05
2.18000000e+00	1.93644434e-03	6.89644143e-05
2.18500000e+00	1.92374297e-03	6.90257944e-05
2.19000000e+00	1.92697730e-03	6.88391845e-05
2.19500000e+00	1.91754274e-03	6.80000351e-05
2.20000000e+00	1.90800270e-03	6.79218771e-05
2.20500000e+00	1.89315667e-03	6.75470544e-05
2.21000000e+00	1.89850814e-03	6.82095509e-05
2.21500000e+00	1.85341987e-03	6.57981833e-05
2.22000000e+00	1.85430709e-03	6.57195210e-05
2.22500000e+00	1.85321854e-03	6.63966977e-05
2.23000000e+00	1.81741154e-03	6.55969952e-05
2.23500000e+00	1.80367065e-03	6.40666297e-05
2.24000000e+00	1.79521949e-03	6.37339015e-05
2.24500000e+00	1.76435831e-03	6.31651895e-05
2.25000000e+00	1.77625257e-03	6.40032867e-05
2.25500000e+00	1.76962104e-03	6.26528985e-05
2.26000000e+00	1.74333657e-03	6.20144714e-05
2.26500000e+00	1.76488866e-03	6.29802759e-05
2.27000000e+00	1.74519532e-03	6.32556191e-05
2.27500000e+00	1.73344390e-03	6.16202660e-05
2.28000000e+00	1.70984092e-03	6.04905667e-05
2.28500000e+00	1.71567604e-03	6.11375079e-05
2.29000000e+00	1.69927321e-03	6.11497957e-05
2.29500000e+00	1.68097966e-03	6.02575592e-05
2.30000000e+00	1.67615459e-03	5.95420000e-05
2.30500000e+00	1.67250810e-03	5.96107948e-05
2.31000000e+00	1.63711696e-03	5.87366105e-05
2.31500000e+00	1.67669751e-03	6.04475253e-05
2.32000000e+00	1.64740478e-03	5.82205172e-05
2.32500000e+00	1.60059508e-03	5.71444409e-05
2.33000000e+00	1.59223838e-03	5.69262169e-05
2.33500000e+00	1.63184766e-03	5.88538813e-05
2.34000000e+00	1.56171196e-03	5.54448190e-05
2.34500000e+00	1.57732501e-03	5.59637232e-05
2.35000000e+00	1.57003200e-03	5.60133441e-05
2.35500000e+00	1.53288770e-03	5.54082419e-05
2.36000000e+00	1.54552650e-03	5.51751485e-05
2.36500000e+00	1.52065642e-03	5.42545387e-05
2.37000000e+00	1.50468138e-03	5.37588696e-05
2.37500000e+00	1.52152623e-03	5.46013624e-05
2.38000000e+00	1.49105945e-03	5.40523031e-05
2.38500000e+00	1.49335535e-03	5.32104909e-05
2.39000000e+00	1.47334764e-03	5.25686355e-05
2.39500000e+00	1.47918683e-03	5.31751746e-05
2.40000000e+00	1.46815748e-03	5.35651558e-05
2.40500000e+00	1.43596523e-03	5.13931140e-05
2.41000000e+00	1.45808269e-03	5.23475894e-05
2.41500000e+00	1.42825613e-03	5.12548309e-05
2.42000000e+00	1.42115326e-03	5.16449768e-05
2.42500000e+00	1.42805944e-03	5.17900060e-05
2.43000000e+00	1.41165297e-03	5.07085885e-05
2.43500000e+00	1.41374380e-03	5.09146114e-05
2.44000000e+00	1.41176581e-03	5.10358318e-05
2.44500000e+00	1.40976505e-03	5.17204152e-05
2.45000000e+00	1.38701225e-03	4.98024631e-05
2.45500000e+00	1.39286552e-03	5.04256336e-05
2.46000000e+00	1.36372655e-03	4.95690298e-05
2.46500000e+00	1.36933153e-03	5.02795649e-05
2.47000000e+00	1.36759046e-03	4.95672656e-05
2.47500000e+00	1.36094424e-03	4.92329476e-05
2.48000000e+00	1.34234976e-03	4.90801170e-05
2.48500000e+00	1.31983508e-03	4.79835369e-05
2.49000000e+00	1.31589514e-03	4.85155059e-05
2.49500000e+00	1.32493774e-03	4.79857529e-05
2.50000000e+00	1.28170675e-03	4.65670559e-05
2.50500000e+00	1.30149419e-03	4.77868278e-05
2.51000000e+00	1.29683486e-03	4.78313537e-05
2.51500000e+00	1.29620904e-03	4.78664918e-05
2.52000000e+00	1.26617194e-03	4.64818734e-05
2.52500000e+00	1.27190673e-03	4.69488462e-05
2.53000000e+00	1.26205308e-03	4.68364844e-05
2.53500000e+00	1.24415787e-03	4.66991314e-05
2.54000000e+00	1.25541464e-03	4.63221495e-05
2.54500000e+00	1.23404588e-03	4.58508155e-05
2.55000000e+00	1.20658574e-03	4.50225886e-05
2.55500000e+00	1.22708121e-03	4.61148376e-05
2.56000000e+00	1.21804875e-03	4.61845347e-05
2.56500000e+00	1.19643083e-03	4.49587982e-05
2.57000000e+00	1.18938819e-03	4.50431412e-05
2.57500000e+00	1.20569864e-03	4.54949045e-05
2.58000000e+00	1.16477565e-03	4.47597152e-05
2.58500000e+00	1.18491557e-03	4.51946148e-05
2.59000000e+00	1.17075359e-03	4.44200169e-05
2.59500000e+00	1.15284166e-03	4.39451289e-05
2.60000000e+00	1.15625730e-03	4.45413796e-05
2.60500000e+00	1.17962914e-03	4.60788326e-05
2.61000000e+00	1.14959127e-03	5.15863320e-05
2.61500000e+00	1.13620085e-03	5.61788077e-05
2.62000000e+00	1.12716880e-03	6.13086530e-05
2.62500000e+00	1.15874322e-03	6.83380738e-05
2.63000000e+00	1.12543983e-03	7.33994197e-05
2.63500000e+00	1.14006275e-03	8.21840917e-05
2.64000000e+00	1.12717717e-03	9.11650056e-05
2.64500000e+00	1.10981467e-03	9.35977033e-05
2.65000000e+00	1.16420938e-03	1.05581737e-04
2.65500000e+00	1.12262549e-03	1.08916989e-04
2.66000000e+00	1.11279231e-03	1.16136703e-04
2.66500000e+00	1.08965352e-03	1.27019053e-04
2.67000000e+00	1.11352036e-03	1.43879094e-04
2.67500000e+00	1.04454065e-03	1.52452981e-04
2.68000000e+00	1.25141803e-03	2.13587311e-04
2.68500000e+00	1.21193935e-03	2.73350526e-04
2.69000000e+00	1.09425391e-03	4.04465293e-04
2.69500000e+00	0.00000000e+00	0.00000000e+00
2.70000000e+00	0.00000000e+00	0.00000000e+00
