% Filename : WDL1_00022_00010.h5
% Date & Time : 30-Oct-2025 16:48:43
% X-ray Energy (keV) : 13.30001
% Exposure Time (s) : 0.500
% Photodiode Value : 141152.000
% I0 of Sample : 0
% I0 of Standard : 1
% 
% q(A^-1)   I(q)    I(q)_SE
8.40000000e-01	0.00000000e+00	0.00000000e+00
8.45000000e-01	2.82454260e-03	4.94466227e-04
8.50000000e-01	2.71416255e-03	2.52217992e-04
8.55000000e-01	2.62768505e-03	2.14910827e-04
8.60000000e-01	2.62456958e-03	1.85621746e-04
8.65000000e-01	2.61772544e-03	1.70749449e-04
8.70000000e-01	2.60248112e-03	1.61663505e-04
8.75000000e-01	2.60552631e-03	1.55755548e-04
8.80000000e-01	2.62479533e-03	1.51783058e-04
8.85000000e-01	2.65446409e-03	1.45090820e-04
8.90000000e-01	2.64597008e-03	1.41381835e-04
8.95000000e-01	2.67223392e-03	1.38937843e-04
9.00000000e-01	2.65484417e-03	1.36793923e-04
9.05000000e-01	2.66819751e-03	1.31329279e-04
9.10000000e-01	2.66449932e-03	1.28784257e-04
9.15000000e-01	2.66968743e-03	1.27071237e-04
9.20000000e-01	2.67142684e-03	1.27132612e-04
9.25000000e-01	2.68455031e-03	1.21927292e-04
9.30000000e-01	2.68862404e-03	1.21011641e-04
9.35000000e-01	2.70914408e-03	1.19548203e-04
9.40000000e-01	2.68692615e-03	1.18977005e-04
9.45000000e-01	2.70680137e-03	1.16740020e-04
9.50000000e-01	2.70896527e-03	1.15311701e-04
9.55000000e-01	2.72512256e-03	1.13960828e-04
9.60000000e-01	2.72772324e-03	1.14088133e-04
9.65000000e-01	2.72967854e-03	1.12204088e-04
9.70000000e-01	2.74297127e-03	1.10927887e-04
9.75000000e-01	2.71022951e-03	1.08487250e-04
9.80000000e-01	2.75702292e-03	1.09285668e-04
9.85000000e-01	2.76930289e-03	1.09943140e-04
9.90000000e-01	2.75408535e-03	1.05997987e-04
9.95000000e-01	2.74800144e-03	1.05291910e-04
1.00000000e+00	2.76006236e-03	1.05272349e-04
1.00500000e+00	2.72484764e-03	1.03965155e-04
1.01000000e+00	2.75470252e-03	1.02903632e-04
1.01500000e+00	2.74172081e-03	1.01371963e-04
1.02000000e+00	2.75277086e-03	1.01778962e-04
1.02500000e+00	2.75473621e-03	1.00593680e-04
1.03000000e+00	2.74318481e-03	9.98349124e-05
1.03500000e+00	2.74322505e-03	9.84273607e-05
1.04000000e+00	2.73168968e-03	9.73557766e-05
1.04500000e+00	2.72746491e-03	9.72897059e-05
1.05000000e+00	2.71175797e-03	9.61350149e-05
1.05500000e+00	2.71633493e-03	9.49216182e-05
1.06000000e+00	2.73205135e-03	9.51500528e-05
1.06500000e+00	2.71945950e-03	9.47764136e-05
1.07000000e+00	2.73150313e-03	9.50896788e-05
1.07500000e+00	2.72760747e-03	9.43120528e-05
1.08000000e+00	2.72475957e-03	9.35664833e-05
1.08500000e+00	2.72924688e-03	9.37550721e-05
1.09000000e+00	2.74311751e-03	9.47987701e-05
1.09500000e+00	2.73453120e-03	9.26162097e-05
1.10000000e+00	2.77707456e-03	9.46691999e-05
1.10500000e+00	2.76287097e-03	9.44638853e-05
1.11000000e+00	2.76561309e-03	9.47082472e-05
1.11500000e+00	2.78503722e-03	9.46702836e-05
1.12000000e+00	2.79996031e-03	9.55247246e-05
1.12500000e+00	2.81455068e-03	9.58317136e-05
1.13000000e+00	2.80973293e-03	9.67939778e-05
1.13500000e+00	2.81360969e-03	9.56940444e-05
1.14000000e+00	2.81829817e-03	9.58334271e-05
1.14500000e+00	2.83250187e-03	9.70779331e-05
1.15000000e+00	2.84512155e-03	9.78725551e-05
1.15500000e+00	2.83277385e-03	9.64966077e-05
1.16000000e+00	2.83709728e-03	9.68983416e-05
1.16500000e+00	2.84815567e-03	9.71605550e-05
1.17000000e+00	2.87165160e-03	9.92055528e-05
1.17500000e+00	2.85191839e-03	9.71541631e-05
1.18000000e+00	2.90111670e-03	9.92704326e-05
1.18500000e+00	2.88382358e-03	9.85345588e-05
1.19000000e+00	2.89118163e-03	9.99124010e-05
1.19500000e+00	2.87006003e-03	9.80143812e-05
1.20000000e+00	2.88542791e-03	9.89621055e-05
1.20500000e+00	2.87619669e-03	9.85038867e-05
1.21000000e+00	2.91466486e-03	1.01133240e-04
1.21500000e+00	2.90894456e-03	9.92563360e-05
1.22000000e+00	2.93063004e-03	1.00223361e-04
1.22500000e+00	2.88687280e-03	9.89729583e-05
1.23000000e+00	2.91282609e-03	1.00738139e-04
1.23500000e+00	2.91408914e-03	1.00138796e-04
1.24000000e+00	2.93235337e-03	1.00363683e-04
1.24500000e+00	2.90257412e-03	9.99061217e-05
1.25000000e+00	2.92326027e-03	1.01225548e-04
1.25500000e+00	2.93907013e-03	1.00536778e-04
1.26000000e+00	2.93183107e-03	1.00959811e-04
1.26500000e+00	2.91082265e-03	9.98534127e-05
1.27000000e+00	2.92674328e-03	1.01806810e-04
1.27500000e+00	2.94535744e-03	1.01442692e-04
1.28000000e+00	2.92733410e-03	1.00175107e-04
1.28500000e+00	2.92983106e-03	1.00831716e-04
1.29000000e+00	2.93294106e-03	1.01834476e-04
1.29500000e+00	2.93143020e-03	1.00757509e-04
1.30000000e+00	2.93866940e-03	1.00884648e-04
1.30500000e+00	2.93577742e-03	1.01225604e-04
1.31000000e+00	2.91895721e-03	1.01790068e-04
1.31500000e+00	2.95080023e-03	1.01607308e-04
1.32000000e+00	2.91833501e-03	1.00416650e-04
1.32500000e+00	2.96135439e-03	1.02146864e-04
1.33000000e+00	2.92395054e-03	1.02119181e-04
1.33500000e+00	2.94696488e-03	1.01499432e-04
1.34000000e+00	2.94780431e-03	1.01653465e-04
1.34500000e+00	2.90761979e-03	1.00646542e-04
1.35000000e+00	2.91722848e-03	1.01938061e-04
1.35500000e+00	2.95130525e-03	1.01634008e-04
1.36000000e+00	2.94285788e-03	1.01220891e-04
1.36500000e+00	2.93905297e-03	1.01405828e-04
1.37000000e+00	2.94523348e-03	1.03111386e-04
1.37500000e+00	2.92978385e-03	1.01082132e-04
1.38000000e+00	2.90724965e-03	1.00461059e-04
1.38500000e+00	2.92111853e-03	1.01518994e-04
1.39000000e+00	2.92612152e-03	1.02342192e-04
1.39500000e+00	2.91962301e-03	1.00653648e-04
1.40000000e+00	2.94000908e-03	1.04421066e-04
1.40500000e+00	2.90930254e-03	1.11123509e-04
1.41000000e+00	2.89139831e-03	1.15696759e-04
1.41500000e+00	2.87412273e-03	1.19232844e-04
1.42000000e+00	2.87951917e-03	1.24220793e-04
1.42500000e+00	2.84781521e-03	1.26592849e-04
1.43000000e+00	2.83660593e-03	1.30641890e-04
1.43500000e+00	2.81940181e-03	1.33761350e-04
1.44000000e+00	2.82906537e-03	1.39660941e-04
1.44500000e+00	2.79209984e-03	1.41453686e-04
1.45000000e+00	2.86034520e-03	1.39905928e-04
1.45500000e+00	2.87265385e-03	1.26356962e-04
1.46000000e+00	2.90238620e-03	1.24645282e-04
1.46500000e+00	2.88713099e-03	1.21857298e-04
1.47000000e+00	2.88010583e-03	1.21188436e-04
1.47500000e+00	2.87688772e-03	1.17575715e-04
1.48000000e+00	2.86708665e-03	1.15961326e-04
1.48500000e+00	2.86451012e-03	1.15990981e-04
1.49000000e+00	2.87818987e-03	1.16731271e-04
1.49500000e+00	2.86849278e-03	1.13778643e-04
1.50000000e+00	2.87976567e-03	1.13897421e-04
1.50500000e+00	2.88355020e-03	1.14636495e-04
1.51000000e+00	2.88114932e-03	1.14844975e-04
1.51500000e+00	2.89449651e-03	1.13408813e-04
1.52000000e+00	2.90183898e-03	1.13347031e-04
1.52500000e+00	2.91226831e-03	1.13569275e-04
1.53000000e+00	2.89945259e-03	1.13782392e-04
1.53500000e+00	2.88769073e-03	1.10033958e-04
1.54000000e+00	2.86851511e-03	1.09139465e-04
1.54500000e+00	2.87855512e-03	1.09340237e-04
1.55000000e+00	2.86706374e-03	1.08601427e-04
1.55500000e+00	2.85183598e-03	1.05596436e-04
1.56000000e+00	2.82659026e-03	1.04847175e-04
1.56500000e+00	2.81837694e-03	1.03993780e-04
1.57000000e+00	2.79918323e-03	1.02650694e-04
1.57500000e+00	2.78260685e-03	1.00105885e-04
1.58000000e+00	2.78535413e-03	1.00100311e-04
1.58500000e+00	2.76342555e-03	9.91555406e-05
1.59000000e+00	2.78346746e-03	1.00048062e-04
1.59500000e+00	2.76709400e-03	9.75612081e-05
1.60000000e+00	2.77358176e-03	9.77073417e-05
1.60500000e+00	2.75081272e-03	9.69132295e-05
1.61000000e+00	2.75854920e-03	9.68004971e-05
1.61500000e+00	2.75220356e-03	9.56922398e-05
1.62000000e+00	2.73894513e-03	9.56001515e-05
1.62500000e+00	2.72550787e-03	9.62951299e-05
1.63000000e+00	2.73076938e-03	9.54214455e-05
1.63500000e+00	2.73423197e-03	9.55919015e-05
1.64000000e+00	2.73209620e-03	9.56240581e-05
1.64500000e+00	2.71410077e-03	9.59490366e-05
1.65000000e+00	2.69750889e-03	9.43567100e-05
1.65500000e+00	2.70719305e-03	9.45998673e-05
1.66000000e+00	2.70439061e-03	9.45751483e-05
1.66500000e+00	2.68169088e-03	9.53893414e-05
1.67000000e+00	2.69699200e-03	9.39030681e-05
1.67500000e+00	2.69305608e-03	9.40045995e-05
1.68000000e+00	2.69163328e-03	9.41894961e-05
1.68500000e+00	2.66172927e-03	9.47433322e-05
1.69000000e+00	2.64327927e-03	9.23086673e-05
1.69500000e+00	2.64774440e-03	9.23114827e-05
1.70000000e+00	2.64915369e-03	9.33800656e-05
1.70500000e+00	2.63892392e-03	9.34166784e-05
1.71000000e+00	2.63645478e-03	9.21018294e-05
1.71500000e+00	2.62808886e-03	9.17121889e-05
1.72000000e+00	2.62224508e-03	9.23445736e-05
1.72500000e+00	2.62540898e-03	9.30046305e-05
1.73000000e+00	2.60412111e-03	9.09704754e-05
1.73500000e+00	2.59856318e-03	9.10530477e-05
1.74000000e+00	2.57653109e-03	9.05504110e-05
1.74500000e+00	2.58936416e-03	9.21066150e-05
1.75000000e+00	2.57392920e-03	8.97828151e-05
1.75500000e+00	2.57247140e-03	9.02660167e-05
1.76000000e+00	2.54543958e-03	8.92978381e-05
1.76500000e+00	2.57466914e-03	9.14043446e-05
1.77000000e+00	2.55712607e-03	8.92951321e-05
1.77500000e+00	2.55804309e-03	8.96211831e-05
1.78000000e+00	2.54179071e-03	8.94264160e-05
1.78500000e+00	2.50767211e-03	8.91239617e-05
1.79000000e+00	2.54367008e-03	8.88109113e-05
1.79500000e+00	2.52415540e-03	8.84541347e-05
1.80000000e+00	2.50376418e-03	8.81382076e-05
1.80500000e+00	2.50376233e-03	8.87970338e-05
1.81000000e+00	2.52162501e-03	8.80117200e-05
1.81500000e+00	2.49454346e-03	8.72185442e-05
1.82000000e+00	2.48886704e-03	8.75976171e-05
1.82500000e+00	2.47280467e-03	8.76542568e-05
1.83000000e+00	2.48346024e-03	8.68313745e-05
1.83500000e+00	2.44134236e-03	8.54985087e-05
1.84000000e+00	2.44687941e-03	8.62440236e-05
1.84500000e+00	2.43768570e-03	8.63513279e-05
1.85000000e+00	2.43115997e-03	8.51122437e-05
1.85500000e+00	2.43533020e-03	8.53410328e-05
1.86000000e+00	2.40991806e-03	8.48798151e-05
1.86500000e+00	2.42010981e-03	8.56179047e-05
1.87000000e+00	2.40706682e-03	8.42294696e-05
1.87500000e+00	2.41402335e-03	8.47278740e-05
1.88000000e+00	2.38532521e-03	8.41001741e-05
1.88500000e+00	2.39377305e-03	8.49274953e-05
1.89000000e+00	2.37355872e-03	8.29084388e-05
1.89500000e+00	2.38178083e-03	8.37386551e-05
1.90000000e+00	2.36307830e-03	8.32560239e-05
1.90500000e+00	2.36995316e-03	8.35432065e-05
1.91000000e+00	2.37389622e-03	8.31851237e-05
1.91500000e+00	2.34283194e-03	8.22184442e-05
1.92000000e+00	2.34149667e-03	8.25372269e-05
1.92500000e+00	2.35446595e-03	8.31594064e-05
1.93000000e+00	2.32729223e-03	8.13598880e-05
1.93500000e+00	2.31263348e-03	8.10961782e-05
1.94000000e+00	2.32373438e-03	8.22766963e-05
1.94500000e+00	2.28210202e-03	8.04540847e-05
1.95000000e+00	2.30615870e-03	8.05914308e-05
1.95500000e+00	2.30921365e-03	8.09778438e-05
1.96000000e+00	2.28721180e-03	8.07529124e-05
1.96500000e+00	2.29063209e-03	8.09723699e-05
1.97000000e+00	2.27051406e-03	7.92604529e-05
1.97500000e+00	2.24493620e-03	7.88660251e-05
1.98000000e+00	2.25472036e-03	7.95541306e-05
1.98500000e+00	2.24542205e-03	7.93977451e-05
1.99000000e+00	2.23637104e-03	7.81114755e-05
1.99500000e+00	2.22806337e-03	7.81631300e-05
2.00000000e+00	2.24220024e-03	7.91634543e-05
2.00500000e+00	2.23745130e-03	7.91201300e-05
2.01000000e+00	2.20057181e-03	8.55188908e-05
2.01500000e+00	2.19188683e-03	9.04886276e-05
2.02000000e+00	2.19584392e-03	9.66492529e-05
2.02500000e+00	2.16201677e-03	9.88017731e-05
2.03000000e+00	2.16576016e-03	1.04904612e-04
2.03500000e+00	2.14900158e-03	1.08630560e-04
2.04000000e+00	2.12134354e-03	1.12168559e-04
2.04500000e+00	2.11839426e-03	1.17843344e-04
2.05000000e+00	2.08061650e-03	1.21516458e-04
2.05500000e+00	2.13325185e-03	1.21995340e-04
2.06000000e+00	2.12810753e-03	1.05911814e-04
2.06500000e+00	2.10924961e-03	1.00282714e-04
2.07000000e+00	2.11357206e-03	9.51885373e-05
2.07500000e+00	2.11289530e-03	9.30457475e-05
2.08000000e+00	2.11779827e-03	9.29741868e-05
2.08500000e+00	2.09737598e-03	9.13167236e-05
2.09000000e+00	2.10513666e-03	8.89550169e-05
2.09500000e+00	2.10945052e-03	8.82174283e-05
2.10000000e+00	2.08398878e-03	8.64756019e-05
2.10500000e+00	2.08768295e-03	8.63908855e-05
2.11000000e+00	2.07108663e-03	8.25970565e-05
2.11500000e+00	2.05913952e-03	8.11973957e-05
2.12000000e+00	2.05150225e-03	8.05712794e-05
2.12500000e+00	2.03441309e-03	7.96321470e-05
2.13000000e+00	2.01896866e-03	7.58393388e-05
2.13500000e+00	1.99872461e-03	7.41256809e-05
2.14000000e+00	1.98978984e-03	7.31909989e-05
2.14500000e+00	1.96677348e-03	7.25147992e-05
2.15000000e+00	1.97234280e-03	7.02752370e-05
2.15500000e+00	1.95939703e-03	7.00145975e-05
2.16000000e+00	1.94612289e-03	6.92196921e-05
2.16500000e+00	1.93468168e-03	6.92841684e-05
2.17000000e+00	1.93661972e-03	6.76793938e-05
2.17500000e+00	1.91806823e-03	6.71921160e-05
2.18000000e+00	1.91326357e-03	6.72516866e-05
2.18500000e+00	1.90697127e-03	6.73557560e-05
2.19000000e+00	1.88861362e-03	6.65194360e-05
2.19500000e+00	1.88599187e-03	6.61112275e-05
2.20000000e+00	1.86727530e-03	6.55535080e-05
2.20500000e+00	1.86547691e-03	6.57015256e-05
2.21000000e+00	1.86163616e-03	6.58399105e-05
2.21500000e+00	1.85464166e-03	6.49909461e-05
2.22000000e+00	1.85300214e-03	6.47308874e-05
2.22500000e+00	1.82986909e-03	6.45336205e-05
2.23000000e+00	1.79194019e-03	6.35160092e-05
2.23500000e+00	1.81550990e-03	6.34267918e-05
2.24000000e+00	1.79932995e-03	6.29712542e-05
2.24500000e+00	1.78390427e-03	6.28647383e-05
2.25000000e+00	1.76871331e-03	6.28528192e-05
2.25500000e+00	1.76338509e-03	6.15357143e-05
2.26000000e+00	1.74448830e-03	6.11667151e-05
2.26500000e+00	1.72145184e-03	6.05345305e-05
2.27000000e+00	1.71222321e-03	6.11068346e-05
2.27500000e+00	1.71405423e-03	5.98516268e-05
2.28000000e+00	1.70941936e-03	5.97615647e-05
2.28500000e+00	1.70935000e-03	6.00986020e-05
2.29000000e+00	1.68077519e-03	5.94262804e-05
2.29500000e+00	1.67007731e-03	5.89115072e-05
2.30000000e+00	1.66589138e-03	5.82533434e-05
2.30500000e+00	1.65436046e-03	5.79017043e-05
2.31000000e+00	1.65154588e-03	5.81811151e-05
2.31500000e+00	1.62186564e-03	5.76356474e-05
2.32000000e+00	1.62438409e-03	5.64888014e-05
2.32500000e+00	1.61823446e-03	5.67197019e-05
2.33000000e+00	1.59556422e-03	5.60304200e-05
2.33500000e+00	1.59071375e-03	5.64415026e-05
2.34000000e+00	1.60055045e-03	5.58843794e-05
2.34500000e+00	1.56614808e-03	5.47125237e-05
2.35000000e+00	1.56488228e-03	5.49201833e-05
2.35500000e+00	1.56015541e-03	5.54251961e-05
2.36000000e+00	1.54613280e-03	5.41174313e-05
2.36500000e+00	1.53060684e-03	5.35415998e-05
2.37000000e+00	1.52347231e-03	5.33593906e-05
2.37500000e+00	1.52221036e-03	5.37663533e-05
2.38000000e+00	1.49062481e-03	5.28874331e-05
2.38500000e+00	1.48080667e-03	5.17887330e-05
2.39000000e+00	1.48779114e-03	5.22761331e-05
2.39500000e+00	1.47511530e-03	5.20102280e-05
2.40000000e+00	1.45998266e-03	5.21920265e-05
2.40500000e+00	1.47150679e-03	5.16190406e-05
2.41000000e+00	1.44667064e-03	5.08856207e-05
2.41500000e+00	1.44195094e-03	5.07512796e-05
2.42000000e+00	1.44242117e-03	5.14468911e-05
2.42500000e+00	1.42914266e-03	5.09208478e-05
2.43000000e+00	1.42031272e-03	5.00202145e-05
2.43500000e+00	1.41853358e-03	5.02026609e-05
2.44000000e+00	1.41708236e-03	5.02790677e-05
2.44500000e+00	1.38709082e-03	4.97888319e-05
2.45000000e+00	1.39507518e-03	4.92193062e-05
2.45500000e+00	1.37832154e-03	4.87673829e-05
2.46000000e+00	1.36088445e-03	4.84062923e-05
2.46500000e+00	1.36497849e-03	4.91378280e-05
2.47000000e+00	1.34787211e-03	4.80227570e-05
2.47500000e+00	1.31593385e-03	4.66355513e-05
2.48000000e+00	1.32630741e-03	4.74134927e-05
2.48500000e+00	1.32223323e-03	4.72403811e-05
2.49000000e+00	1.31357195e-03	4.75477530e-05
2.49500000e+00	1.31419055e-03	4.66962533e-05
2.50000000e+00	1.28625806e-03	4.58238692e-05
2.50500000e+00	1.29657217e-03	4.64756844e-05
2.51000000e+00	1.27009196e-03	4.57828233e-05
2.51500000e+00	1.28183420e-03	4.63262428e-05
2.52000000e+00	1.26815480e-03	4.54729824e-05
2.52500000e+00	1.26256613e-03	4.54814095e-05
2.53000000e+00	1.25660716e-03	4.56707350e-05
2.53500000e+00	1.24976139e-03	4.60276855e-05
2.54000000e+00	1.24637864e-03	4.50607610e-05
2.54500000e+00	1.24786603e-03	4.52843538e-05
2.55000000e+00	1.22451173e-03	4.46562928e-05
2.55500000e+00	1.21710804e-03	4.47971344e-05
2.56000000e+00	1.20297631e-03	4.45460476e-05
2.56500000e+00	1.20228176e-03	4.40697623e-05
2.57000000e+00	1.19385376e-03	4.39698748e-05
2.57500000e+00	1.18736522e-03	4.38270869e-05
2.58000000e+00	1.18236568e-03	4.43076580e-05
2.58500000e+00	1.17943112e-03	4.38891773e-05
2.59000000e+00	1.18425902e-03	4.39488307e-05
2.59500000e+00	1.17566885e-03	4.37944486e-05
2.60000000e+00	1.17404669e-03	4.40296739e-05
2.60500000e+00	1.17313114e-03	4.50001204e-05
2.61000000e+00	1.15311778e-03	5.04019305e-05
2.61500000e+00	1.16773691e-03	5.64691625e-05
2.62000000e+00	1.13505510e-03	6.03662076e-05
2.62500000e+00	1.16239191e-03	6.68931839e-05
2.63000000e+00	1.14020177e-03	7.23979585e-05
2.63500000e+00	1.13119667e-03	7.95682592e-05
2.64000000e+00	1.13165630e-03	8.81365183e-05
2.64500000e+00	1.10850730e-03	9.20879427e-05
2.65000000e+00	1.10664111e-03	9.70518873e-05
2.65500000e+00	1.13458793e-03	1.06963266e-04
2.66000000e+00	1.08315318e-03	1.09634296e-04
2.66500000e+00	1.05631508e-03	1.20256112e-04
2.67000000e+00	1.03647859e-03	1.27895110e-04
2.67500000e+00	1.06328937e-03	1.53253701e-04
2.68000000e+00	1.08699755e-03	1.82240394e-04
2.68500000e+00	1.07322977e-03	2.38576775e-04
2.69000000e+00	1.26451465e-03	4.52890224e-04
2.69500000e+00	0.00000000e+00	0.00000000e+00
2.70000000e+00	0.00000000e+00	0.00000000e+00
