% Filename : WDL12_00046_00008.h5
% Date & Time : 30-Oct-2025 18:08:50
% X-ray Energy (keV) : 13.30001
% Exposure Time (s) : 0.500
% Photodiode Value : 141763.000
% I0 of Sample : 0
% I0 of Standard : 1
% 
% q(A^-1)   I(q)    I(q)_SE
8.40000000e-01	0.00000000e+00	0.00000000e+00
8.45000000e-01	2.81717956e-03	4.93236241e-04
8.50000000e-01	2.66882042e-03	2.47876750e-04
8.55000000e-01	2.61478365e-03	2.13458720e-04
8.60000000e-01	2.61675803e-03	1.85132930e-04
8.65000000e-01	2.63435055e-03	1.71874763e-04
8.70000000e-01	2.60785435e-03	1.62182789e-04
8.75000000e-01	2.66875426e-03	1.59311031e-04
8.80000000e-01	2.63197807e-03	1.52237813e-04
8.85000000e-01	2.63413515e-03	1.44113833e-04
8.90000000e-01	2.65080867e-03	1.41786285e-04
8.95000000e-01	2.67174811e-03	1.38859523e-04
9.00000000e-01	2.62552495e-03	1.35283383e-04
9.05000000e-01	2.69147375e-03	1.32491869e-04
9.10000000e-01	2.71361628e-03	1.31230599e-04
9.15000000e-01	2.69900252e-03	1.28274479e-04
9.20000000e-01	2.70168010e-03	1.28481768e-04
9.25000000e-01	2.71274535e-03	1.23303906e-04
9.30000000e-01	2.73006062e-03	1.22786991e-04
9.35000000e-01	2.70286927e-03	1.19267354e-04
9.40000000e-01	2.70802575e-03	1.19740395e-04
9.45000000e-01	2.71930297e-03	1.17404225e-04
9.50000000e-01	2.71584897e-03	1.15518229e-04
9.55000000e-01	2.71018136e-03	1.13247574e-04
9.60000000e-01	2.71361238e-03	1.13601281e-04
9.65000000e-01	2.74387615e-03	1.12854248e-04
9.70000000e-01	2.75259762e-03	1.11337411e-04
9.75000000e-01	2.76423687e-03	1.10585309e-04
9.80000000e-01	2.74848527e-03	1.09094454e-04
9.85000000e-01	2.75862131e-03	1.09460796e-04
9.90000000e-01	2.75942774e-03	1.06221545e-04
9.95000000e-01	2.75075552e-03	1.05426693e-04
1.00000000e+00	2.77490744e-03	1.05830909e-04
1.00500000e+00	2.75309088e-03	1.05034892e-04
1.01000000e+00	2.77494654e-03	1.03617188e-04
1.01500000e+00	2.75657485e-03	1.01896309e-04
1.02000000e+00	2.78306429e-03	1.02954164e-04
1.02500000e+00	2.77573332e-03	1.01311223e-04
1.03000000e+00	2.78557088e-03	1.01213981e-04
1.03500000e+00	2.75815597e-03	9.89801507e-05
1.04000000e+00	2.75029415e-03	9.80818601e-05
1.04500000e+00	2.72923382e-03	9.73865194e-05
1.05000000e+00	2.74853797e-03	9.74930791e-05
1.05500000e+00	2.71892414e-03	9.48526999e-05
1.06000000e+00	2.74228084e-03	9.55456240e-05
1.06500000e+00	2.73830469e-03	9.54285956e-05
1.07000000e+00	2.70823334e-03	9.42770871e-05
1.07500000e+00	2.75681391e-03	9.53076972e-05
1.08000000e+00	2.75087888e-03	9.45384214e-05
1.08500000e+00	2.75266635e-03	9.46873058e-05
1.09000000e+00	2.75345513e-03	9.52310223e-05
1.09500000e+00	2.77696316e-03	9.41020276e-05
1.10000000e+00	2.77913798e-03	9.47506554e-05
1.10500000e+00	2.76261184e-03	9.44140545e-05
1.11000000e+00	2.79292527e-03	9.56564009e-05
1.11500000e+00	2.81564144e-03	9.57128111e-05
1.12000000e+00	2.79942845e-03	9.55004482e-05
1.12500000e+00	2.81348009e-03	9.58335288e-05
1.13000000e+00	2.81550506e-03	9.69857944e-05
1.13500000e+00	2.86567762e-03	9.74778805e-05
1.14000000e+00	2.85099969e-03	9.68444821e-05
1.14500000e+00	2.84912452e-03	9.75232050e-05
1.15000000e+00	2.83570450e-03	9.75573630e-05
1.15500000e+00	2.88012112e-03	9.81782981e-05
1.16000000e+00	2.86095673e-03	9.77476927e-05
1.16500000e+00	2.89886945e-03	9.88392073e-05
1.17000000e+00	2.88056574e-03	9.94869353e-05
1.17500000e+00	2.90983695e-03	9.90562183e-05
1.18000000e+00	2.89138649e-03	9.89317478e-05
1.18500000e+00	2.90255147e-03	9.91058427e-05
1.19000000e+00	2.87690481e-03	9.94274272e-05
1.19500000e+00	2.91509233e-03	9.95216040e-05
1.20000000e+00	2.90556034e-03	9.96699193e-05
1.20500000e+00	2.89886911e-03	9.92713828e-05
1.21000000e+00	2.90825338e-03	1.00875686e-04
1.21500000e+00	2.93629300e-03	1.00228925e-04
1.22000000e+00	2.92287530e-03	9.98254125e-05
1.22500000e+00	2.92164149e-03	1.00215454e-04
1.23000000e+00	2.92649157e-03	1.01243376e-04
1.23500000e+00	2.92676664e-03	1.00489401e-04
1.24000000e+00	2.94720479e-03	1.00776810e-04
1.24500000e+00	2.94330464e-03	1.01369173e-04
1.25000000e+00	2.93055830e-03	1.01421033e-04
1.25500000e+00	2.95063632e-03	1.01019472e-04
1.26000000e+00	2.94466539e-03	1.01357797e-04
1.26500000e+00	2.96964994e-03	1.01847013e-04
1.27000000e+00	2.94197738e-03	1.02408729e-04
1.27500000e+00	2.94323393e-03	1.01391112e-04
1.28000000e+00	2.94598219e-03	1.00912549e-04
1.28500000e+00	2.94258483e-03	1.01335965e-04
1.29000000e+00	2.95411128e-03	1.02577722e-04
1.29500000e+00	2.96564685e-03	1.02037312e-04
1.30000000e+00	2.94575675e-03	1.01065481e-04
1.30500000e+00	2.95911289e-03	1.01983642e-04
1.31000000e+00	2.94363901e-03	1.02626850e-04
1.31500000e+00	2.95191872e-03	1.01686821e-04
1.32000000e+00	2.98368570e-03	1.02621012e-04
1.32500000e+00	2.96612997e-03	1.02317259e-04
1.33000000e+00	2.96815799e-03	1.03651439e-04
1.33500000e+00	2.98734413e-03	1.02846800e-04
1.34000000e+00	2.97468857e-03	1.02531613e-04
1.34500000e+00	2.95679737e-03	1.02244478e-04
1.35000000e+00	2.95632846e-03	1.03238384e-04
1.35500000e+00	2.97319529e-03	1.02428207e-04
1.36000000e+00	2.98942578e-03	1.02797544e-04
1.36500000e+00	2.93609669e-03	1.01270197e-04
1.37000000e+00	2.94766952e-03	1.03214776e-04
1.37500000e+00	2.95757157e-03	1.01966193e-04
1.38000000e+00	2.96881383e-03	1.02634616e-04
1.38500000e+00	2.94489074e-03	1.02251879e-04
1.39000000e+00	2.91672162e-03	1.01988536e-04
1.39500000e+00	2.96132694e-03	1.02020406e-04
1.40000000e+00	2.98906713e-03	1.06074657e-04
1.40500000e+00	2.93484368e-03	1.12105236e-04
1.41000000e+00	2.91522652e-03	1.16583741e-04
1.41500000e+00	2.91276813e-03	1.20761786e-04
1.42000000e+00	2.90560877e-03	1.25490922e-04
1.42500000e+00	2.87935306e-03	1.28008361e-04
1.43000000e+00	2.86489811e-03	1.32134180e-04
1.43500000e+00	2.84969883e-03	1.35281234e-04
1.44000000e+00	2.81480661e-03	1.38889111e-04
1.44500000e+00	2.83491115e-03	1.43534142e-04
1.45000000e+00	2.90327181e-03	1.42212391e-04
1.45500000e+00	2.93299665e-03	1.29111366e-04
1.46000000e+00	2.91899819e-03	1.25368220e-04
1.46500000e+00	2.92217747e-03	1.23233297e-04
1.47000000e+00	2.91819825e-03	1.22896883e-04
1.47500000e+00	2.88845554e-03	1.18006876e-04
1.48000000e+00	2.92532760e-03	1.18292311e-04
1.48500000e+00	2.91495506e-03	1.18027066e-04
1.49000000e+00	2.89923559e-03	1.17582042e-04
1.49500000e+00	2.90118366e-03	1.15077269e-04
1.50000000e+00	2.92787500e-03	1.15786764e-04
1.50500000e+00	2.91682575e-03	1.15900471e-04
1.51000000e+00	2.93604602e-03	1.16965054e-04
1.51500000e+00	2.91208882e-03	1.14127958e-04
1.52000000e+00	2.95375627e-03	1.15350907e-04
1.52500000e+00	2.94296733e-03	1.14740235e-04
1.53000000e+00	2.91894716e-03	1.14463598e-04
1.53500000e+00	2.91141631e-03	1.10952858e-04
1.54000000e+00	2.93413159e-03	1.11702102e-04
1.54500000e+00	2.89475986e-03	1.09900679e-04
1.55000000e+00	2.89463203e-03	1.09648384e-04
1.55500000e+00	2.88824024e-03	1.06941381e-04
1.56000000e+00	2.86717800e-03	1.06330106e-04
1.56500000e+00	2.86150308e-03	1.05549328e-04
1.57000000e+00	2.81809565e-03	1.03281131e-04
1.57500000e+00	2.83656892e-03	1.02020114e-04
1.58000000e+00	2.82837648e-03	1.01533131e-04
1.58500000e+00	2.82917885e-03	1.01609458e-04
1.59000000e+00	2.80639372e-03	1.00836640e-04
1.59500000e+00	2.80296681e-03	9.88564756e-05
1.60000000e+00	2.80210484e-03	9.86894372e-05
1.60500000e+00	2.80625955e-03	9.89508079e-05
1.61000000e+00	2.78510484e-03	9.77302787e-05
1.61500000e+00	2.76179273e-03	9.60563370e-05
1.62000000e+00	2.76564201e-03	9.66165748e-05
1.62500000e+00	2.74767709e-03	9.71219621e-05
1.63000000e+00	2.76087427e-03	9.65125636e-05
1.63500000e+00	2.76251139e-03	9.65398263e-05
1.64000000e+00	2.75230676e-03	9.62434137e-05
1.64500000e+00	2.75178924e-03	9.73164802e-05
1.65000000e+00	2.72822549e-03	9.53429040e-05
1.65500000e+00	2.72074896e-03	9.50022258e-05
1.66000000e+00	2.72182621e-03	9.52083444e-05
1.66500000e+00	2.71607862e-03	9.65665822e-05
1.67000000e+00	2.69886784e-03	9.39956197e-05
1.67500000e+00	2.70218997e-03	9.43578601e-05
1.68000000e+00	2.71371960e-03	9.50039642e-05
1.68500000e+00	2.70083134e-03	9.61264975e-05
1.69000000e+00	2.69914926e-03	9.41606123e-05
1.69500000e+00	2.67981948e-03	9.33915291e-05
1.70000000e+00	2.65853234e-03	9.36796982e-05
1.70500000e+00	2.65945143e-03	9.41848776e-05
1.71000000e+00	2.68376621e-03	9.38038546e-05
1.71500000e+00	2.67207221e-03	9.33412913e-05
1.72000000e+00	2.63870398e-03	9.28421311e-05
1.72500000e+00	2.62326621e-03	9.29672840e-05
1.73000000e+00	2.64292078e-03	9.23338719e-05
1.73500000e+00	2.63681946e-03	9.23962392e-05
1.74000000e+00	2.63894454e-03	9.27506158e-05
1.74500000e+00	2.62109095e-03	9.31741003e-05
1.75000000e+00	2.60693954e-03	9.08644417e-05
1.75500000e+00	2.59969167e-03	9.11986749e-05
1.76000000e+00	2.59810935e-03	9.11213891e-05
1.76500000e+00	2.57789353e-03	9.15760354e-05
1.77000000e+00	2.59125853e-03	9.05027529e-05
1.77500000e+00	2.57809854e-03	9.02894132e-05
1.78000000e+00	2.58199306e-03	9.07496990e-05
1.78500000e+00	2.56243221e-03	9.09805431e-05
1.79000000e+00	2.55318982e-03	8.91747963e-05
1.79500000e+00	2.55748728e-03	8.96380161e-05
1.80000000e+00	2.55183626e-03	8.98884132e-05
1.80500000e+00	2.55352067e-03	9.04643617e-05
1.81000000e+00	2.55071111e-03	8.91135050e-05
1.81500000e+00	2.51322202e-03	8.78667168e-05
1.82000000e+00	2.51019265e-03	8.83222194e-05
1.82500000e+00	2.49797928e-03	8.84707290e-05
1.83000000e+00	2.50460504e-03	8.75765661e-05
1.83500000e+00	2.50245306e-03	8.76244573e-05
1.84000000e+00	2.49714289e-03	8.79646845e-05
1.84500000e+00	2.47696587e-03	8.76553265e-05
1.85000000e+00	2.48852830e-03	8.71300192e-05
1.85500000e+00	2.49732407e-03	8.75190717e-05
1.86000000e+00	2.45368328e-03	8.65207468e-05
1.86500000e+00	2.45579037e-03	8.67843490e-05
1.87000000e+00	2.46472139e-03	8.61782078e-05
1.87500000e+00	2.43585973e-03	8.54203002e-05
1.88000000e+00	2.42752604e-03	8.55793463e-05
1.88500000e+00	2.42425073e-03	8.58715135e-05
1.89000000e+00	2.40884826e-03	8.41452247e-05
1.89500000e+00	2.45261700e-03	8.61538809e-05
1.90000000e+00	2.39640692e-03	8.44370162e-05
1.90500000e+00	2.42546475e-03	8.55804804e-05
1.91000000e+00	2.39375805e-03	8.38574575e-05
1.91500000e+00	2.37582065e-03	8.32494277e-05
1.92000000e+00	2.36570531e-03	8.34216273e-05
1.92500000e+00	2.37950371e-03	8.39456481e-05
1.93000000e+00	2.35538956e-03	8.24151749e-05
1.93500000e+00	2.33573385e-03	8.20350892e-05
1.94000000e+00	2.34208514e-03	8.27859671e-05
1.94500000e+00	2.32719112e-03	8.20069059e-05
1.95000000e+00	2.33280569e-03	8.15081304e-05
1.95500000e+00	2.33220311e-03	8.18068052e-05
1.96000000e+00	2.32026960e-03	8.19371389e-05
1.96500000e+00	2.31147316e-03	8.17003373e-05
1.97000000e+00	2.30427616e-03	8.04138744e-05
1.97500000e+00	2.28894545e-03	8.04645634e-05
1.98000000e+00	2.27265496e-03	8.01713636e-05
1.98500000e+00	2.29411094e-03	8.11141364e-05
1.99000000e+00	2.25544539e-03	7.87161758e-05
1.99500000e+00	2.26350974e-03	7.93890046e-05
2.00000000e+00	2.26663543e-03	8.00427298e-05
2.00500000e+00	2.26990697e-03	8.03981256e-05
2.01000000e+00	2.26363162e-03	8.79549606e-05
2.01500000e+00	2.22389552e-03	9.17139377e-05
2.02000000e+00	2.21870827e-03	9.76690817e-05
2.02500000e+00	2.20540758e-03	1.00801082e-04
2.03000000e+00	2.17292171e-03	1.05229216e-04
2.03500000e+00	2.16752270e-03	1.09687306e-04
2.04000000e+00	2.14388214e-03	1.13315779e-04
2.04500000e+00	2.12948477e-03	1.18535463e-04
2.05000000e+00	2.11658442e-03	1.23638820e-04
2.05500000e+00	2.14318452e-03	1.22481440e-04
2.06000000e+00	2.18502057e-03	1.08755416e-04
2.06500000e+00	2.15418298e-03	1.02579749e-04
2.07000000e+00	2.16538945e-03	9.74719509e-05
2.07500000e+00	2.15309011e-03	9.48295512e-05
2.08000000e+00	2.14479428e-03	9.42230927e-05
2.08500000e+00	2.14322929e-03	9.33543000e-05
2.09000000e+00	2.12302931e-03	8.97210210e-05
2.09500000e+00	2.13739970e-03	8.92953377e-05
2.10000000e+00	2.13644838e-03	8.86591585e-05
2.10500000e+00	2.12599679e-03	8.79253571e-05
2.11000000e+00	2.10909741e-03	8.41133717e-05
2.11500000e+00	2.09235356e-03	8.25455979e-05
2.12000000e+00	2.07413841e-03	8.14677965e-05
2.12500000e+00	2.06660274e-03	8.08915426e-05
2.13000000e+00	2.04551879e-03	7.68117405e-05
2.13500000e+00	2.05208783e-03	7.61793098e-05
2.14000000e+00	2.01062117e-03	7.40229698e-05
2.14500000e+00	1.99918524e-03	7.37182699e-05
2.15000000e+00	1.98973983e-03	7.09384943e-05
2.15500000e+00	1.98329644e-03	7.09084221e-05
2.16000000e+00	1.98470983e-03	7.05541921e-05
2.16500000e+00	1.97522770e-03	7.07078286e-05
2.17000000e+00	1.96011737e-03	6.84399428e-05
2.17500000e+00	1.95790928e-03	6.85501036e-05
2.18000000e+00	1.94278531e-03	6.83014681e-05
2.18500000e+00	1.95776505e-03	6.91700658e-05
2.19000000e+00	1.92772874e-03	6.79073054e-05
2.19500000e+00	1.92395251e-03	6.73779447e-05
2.20000000e+00	1.93659587e-03	6.80146021e-05
2.20500000e+00	1.89351504e-03	6.66617213e-05
2.21000000e+00	1.89426511e-03	6.70481443e-05
2.21500000e+00	1.86489377e-03	6.53475856e-05
2.22000000e+00	1.87216007e-03	6.54433722e-05
2.22500000e+00	1.85529830e-03	6.53406371e-05
2.23000000e+00	1.84149183e-03	6.53124988e-05
2.23500000e+00	1.83271880e-03	6.40034644e-05
2.24000000e+00	1.82716623e-03	6.39881762e-05
2.24500000e+00	1.81290704e-03	6.38296286e-05
2.25000000e+00	1.82051037e-03	6.46980347e-05
2.25500000e+00	1.80433616e-03	6.29543208e-05
2.26000000e+00	1.77850342e-03	6.22517298e-05
2.26500000e+00	1.77819899e-03	6.25080318e-05
2.27000000e+00	1.74322170e-03	6.21542186e-05
2.27500000e+00	1.73378258e-03	6.05442922e-05
2.28000000e+00	1.73425031e-03	6.05498774e-05
2.28500000e+00	1.72729559e-03	6.08178280e-05
2.29000000e+00	1.71489563e-03	6.06611563e-05
2.29500000e+00	1.67933361e-03	5.92031818e-05
2.30000000e+00	1.69222101e-03	5.90541042e-05
2.30500000e+00	1.67515395e-03	5.86096681e-05
2.31000000e+00	1.66797423e-03	5.87387162e-05
2.31500000e+00	1.65645315e-03	5.87986496e-05
2.32000000e+00	1.63080889e-03	5.67299780e-05
2.32500000e+00	1.62201258e-03	5.68580467e-05
2.33000000e+00	1.62006979e-03	5.69362751e-05
2.33500000e+00	1.62334809e-03	5.76097137e-05
2.34000000e+00	1.59310299e-03	5.56699722e-05
2.34500000e+00	1.57755403e-03	5.50632040e-05
2.35000000e+00	1.58664317e-03	5.55911199e-05
2.35500000e+00	1.58230087e-03	5.61958241e-05
2.36000000e+00	1.56596160e-03	5.47886929e-05
2.36500000e+00	1.55137588e-03	5.42151901e-05
2.37000000e+00	1.52782562e-03	5.34408717e-05
2.37500000e+00	1.52848794e-03	5.38782516e-05
2.38000000e+00	1.50798995e-03	5.34499711e-05
2.38500000e+00	1.52682167e-03	5.33800019e-05
2.39000000e+00	1.51427787e-03	5.30972104e-05
2.39500000e+00	1.49907213e-03	5.29171789e-05
2.40000000e+00	1.49447773e-03	5.34124394e-05
2.40500000e+00	1.47459706e-03	5.17063134e-05
2.41000000e+00	1.47008228e-03	5.17648890e-05
2.41500000e+00	1.45689312e-03	5.12516159e-05
2.42000000e+00	1.44842176e-03	5.16776661e-05
2.42500000e+00	1.43880622e-03	5.11975679e-05
2.43000000e+00	1.42726040e-03	5.03597533e-05
2.43500000e+00	1.42579801e-03	5.05273102e-05
2.44000000e+00	1.41533960e-03	5.01897319e-05
2.44500000e+00	1.41538913e-03	5.08584129e-05
2.45000000e+00	1.38845929e-03	4.90129315e-05
2.45500000e+00	1.38680830e-03	4.91471182e-05
2.46000000e+00	1.37882929e-03	4.90392627e-05
2.46500000e+00	1.36698330e-03	4.92072792e-05
2.47000000e+00	1.36975924e-03	4.87982962e-05
2.47500000e+00	1.36067994e-03	4.81900388e-05
2.48000000e+00	1.35554062e-03	4.84257940e-05
2.48500000e+00	1.35664412e-03	4.84243431e-05
2.49000000e+00	1.31524597e-03	4.76873998e-05
2.49500000e+00	1.34070081e-03	4.76574775e-05
2.50000000e+00	1.32013052e-03	4.70295392e-05
2.50500000e+00	1.30405785e-03	4.67321906e-05
2.51000000e+00	1.30840471e-03	4.72164152e-05
2.51500000e+00	1.29415850e-03	4.67281572e-05
2.52000000e+00	1.27792296e-03	4.58018627e-05
2.52500000e+00	1.28475090e-03	4.62577227e-05
2.53000000e+00	1.27734914e-03	4.63884657e-05
2.53500000e+00	1.26596133e-03	4.65687708e-05
2.54000000e+00	1.26243738e-03	4.56326991e-05
2.54500000e+00	1.24013791e-03	4.50328625e-05
2.55000000e+00	1.23031514e-03	4.48927951e-05
2.55500000e+00	1.24713463e-03	4.58335785e-05
2.56000000e+00	1.22869115e-03	4.54926966e-05
2.56500000e+00	1.22758119e-03	4.49682446e-05
2.57000000e+00	1.22352877e-03	4.49218425e-05
2.57500000e+00	1.20870525e-03	4.46174589e-05
2.58000000e+00	1.19397653e-03	4.48481068e-05
2.58500000e+00	1.18995782e-03	4.43396568e-05
2.59000000e+00	1.17744292e-03	4.36662640e-05
2.59500000e+00	1.18057893e-03	4.39577175e-05
2.60000000e+00	1.19031969e-03	4.47240629e-05
2.60500000e+00	1.18924477e-03	4.55935477e-05
2.61000000e+00	1.16656597e-03	5.09879416e-05
2.61500000e+00	1.14961752e-03	5.56681249e-05
2.62000000e+00	1.14770986e-03	6.09940119e-05
2.62500000e+00	1.15878196e-03	6.67933186e-05
2.63000000e+00	1.15412502e-03	7.32545887e-05
2.63500000e+00	1.15181381e-03	8.12327637e-05
2.64000000e+00	1.14574445e-03	8.91811369e-05
2.64500000e+00	1.17263884e-03	9.75596996e-05
2.65000000e+00	1.13642758e-03	1.00064952e-04
2.65500000e+00	1.26200195e-03	1.31134348e-04
2.66000000e+00	1.11774773e-03	1.12814164e-04
2.66500000e+00	1.12520609e-03	1.28179199e-04
2.67000000e+00	1.09980430e-03	1.35911018e-04
2.67500000e+00	1.08569366e-03	1.56091959e-04
2.68000000e+00	1.05865527e-03	1.76630775e-04
2.68500000e+00	1.14255224e-03	2.56347221e-04
2.69000000e+00	1.08990757e-03	3.91659670e-04
2.69500000e+00	0.00000000e+00	0.00000000e+00
2.70000000e+00	0.00000000e+00	0.00000000e+00
