% Filename : WDL1_00022_00018.h5
% Date & Time : 30-Oct-2025 16:49:05
% X-ray Energy (keV) : 13.30001
% Exposure Time (s) : 0.500
% Photodiode Value : 141466.000
% I0 of Sample : 0
% I0 of Standard : 1
% 
% q(A^-1)   I(q)    I(q)_SE
8.40000000e-01	0.00000000e+00	0.00000000e+00
8.45000000e-01	2.84238251e-03	4.97074758e-04
8.50000000e-01	2.70137628e-03	2.50074552e-04
8.55000000e-01	2.63492741e-03	2.15378939e-04
8.60000000e-01	2.57034119e-03	1.81848966e-04
8.65000000e-01	2.59592899e-03	1.69070969e-04
8.70000000e-01	2.62301083e-03	1.63019674e-04
8.75000000e-01	2.59217989e-03	1.55009191e-04
8.80000000e-01	2.62874739e-03	1.52060178e-04
8.85000000e-01	2.64257700e-03	1.44405768e-04
8.90000000e-01	2.62341096e-03	1.40390257e-04
8.95000000e-01	2.65383032e-03	1.38021660e-04
9.00000000e-01	2.62749187e-03	1.35423476e-04
9.05000000e-01	2.67532236e-03	1.31737933e-04
9.10000000e-01	2.65843407e-03	1.28541702e-04
9.15000000e-01	2.66004165e-03	1.26642651e-04
9.20000000e-01	2.66738105e-03	1.26863366e-04
9.25000000e-01	2.68528285e-03	1.22050908e-04
9.30000000e-01	2.71116539e-03	1.22060504e-04
9.35000000e-01	2.68282072e-03	1.18550507e-04
9.40000000e-01	2.72143136e-03	1.20379389e-04
9.45000000e-01	2.69546864e-03	1.16378920e-04
9.50000000e-01	2.69986958e-03	1.14911606e-04
9.55000000e-01	2.70030349e-03	1.12832799e-04
9.60000000e-01	2.72091627e-03	1.13794089e-04
9.65000000e-01	2.74910267e-03	1.13015461e-04
9.70000000e-01	2.73193356e-03	1.10554564e-04
9.75000000e-01	2.72522862e-03	1.09039103e-04
9.80000000e-01	2.75222746e-03	1.09197616e-04
9.85000000e-01	2.73667745e-03	1.08625855e-04
9.90000000e-01	2.73738868e-03	1.05471517e-04
9.95000000e-01	2.74300797e-03	1.05053071e-04
1.00000000e+00	2.75346554e-03	1.04982197e-04
1.00500000e+00	2.75525505e-03	1.05131037e-04
1.01000000e+00	2.75589621e-03	1.02902374e-04
1.01500000e+00	2.76297574e-03	1.02156419e-04
1.02000000e+00	2.72963536e-03	1.00915255e-04
1.02500000e+00	2.74122696e-03	1.00140011e-04
1.03000000e+00	2.72959436e-03	9.93512334e-05
1.03500000e+00	2.73517041e-03	9.81676074e-05
1.04000000e+00	2.71890340e-03	9.69563768e-05
1.04500000e+00	2.73455565e-03	9.75763876e-05
1.05000000e+00	2.71151034e-03	9.61260588e-05
1.05500000e+00	2.70382477e-03	9.44148890e-05
1.06000000e+00	2.70012698e-03	9.40977001e-05
1.06500000e+00	2.70099303e-03	9.42411791e-05
1.07000000e+00	2.71168641e-03	9.44319896e-05
1.07500000e+00	2.72622325e-03	9.41518489e-05
1.08000000e+00	2.74864070e-03	9.43981155e-05
1.08500000e+00	2.71200321e-03	9.32023787e-05
1.09000000e+00	2.72830242e-03	9.42333370e-05
1.09500000e+00	2.75999722e-03	9.34387592e-05
1.10000000e+00	2.74851448e-03	9.36606344e-05
1.10500000e+00	2.76225551e-03	9.45668834e-05
1.11000000e+00	2.74869298e-03	9.42061025e-05
1.11500000e+00	2.77009699e-03	9.41720075e-05
1.12000000e+00	2.79464837e-03	9.54366177e-05
1.12500000e+00	2.76801201e-03	9.42493449e-05
1.13000000e+00	2.79161328e-03	9.62276608e-05
1.13500000e+00	2.80652583e-03	9.55281037e-05
1.14000000e+00	2.83309395e-03	9.61818503e-05
1.14500000e+00	2.82189574e-03	9.66866358e-05
1.15000000e+00	2.81587943e-03	9.69637893e-05
1.15500000e+00	2.83780121e-03	9.66984119e-05
1.16000000e+00	2.82444135e-03	9.65358270e-05
1.16500000e+00	2.83823186e-03	9.69267718e-05
1.17000000e+00	2.85203693e-03	9.87289966e-05
1.17500000e+00	2.85642530e-03	9.72542972e-05
1.18000000e+00	2.87554286e-03	9.83778485e-05
1.18500000e+00	2.86271876e-03	9.77560212e-05
1.19000000e+00	2.84985286e-03	9.84134017e-05
1.19500000e+00	2.87334811e-03	9.79165629e-05
1.20000000e+00	2.86711087e-03	9.83327384e-05
1.20500000e+00	2.87236826e-03	9.83620239e-05
1.21000000e+00	2.88020599e-03	9.99576913e-05
1.21500000e+00	2.88628865e-03	9.85073848e-05
1.22000000e+00	2.89562776e-03	9.89784627e-05
1.22500000e+00	2.90269527e-03	9.95937601e-05
1.23000000e+00	2.91060169e-03	1.00611440e-04
1.23500000e+00	2.89293629e-03	9.93275290e-05
1.24000000e+00	2.91186026e-03	9.94206076e-05
1.24500000e+00	2.89335541e-03	9.96732951e-05
1.25000000e+00	2.91574193e-03	1.00987127e-04
1.25500000e+00	2.93327330e-03	1.00453026e-04
1.26000000e+00	2.92174685e-03	1.00501535e-04
1.26500000e+00	2.92847558e-03	1.00390525e-04
1.27000000e+00	2.92287882e-03	1.01828567e-04
1.27500000e+00	2.90470274e-03	1.00063578e-04
1.28000000e+00	2.91196035e-03	9.97076265e-05
1.28500000e+00	2.91484137e-03	1.00379525e-04
1.29000000e+00	2.92215860e-03	1.01468942e-04
1.29500000e+00	2.94384709e-03	1.01152444e-04
1.30000000e+00	2.93385046e-03	1.00631383e-04
1.30500000e+00	2.92134841e-03	1.00681530e-04
1.31000000e+00	2.91405308e-03	1.01595817e-04
1.31500000e+00	2.91170939e-03	1.00212209e-04
1.32000000e+00	2.93019821e-03	1.00792513e-04
1.32500000e+00	2.92167273e-03	1.00788760e-04
1.33000000e+00	2.92745841e-03	1.02091811e-04
1.33500000e+00	2.91568739e-03	1.00422501e-04
1.34000000e+00	2.93063259e-03	1.00951929e-04
1.34500000e+00	2.92061618e-03	1.01014131e-04
1.35000000e+00	2.92308322e-03	1.02078883e-04
1.35500000e+00	2.90013125e-03	9.98838362e-05
1.36000000e+00	2.92615446e-03	1.00567256e-04
1.36500000e+00	2.93477438e-03	1.01319924e-04
1.37000000e+00	2.90441451e-03	1.01720981e-04
1.37500000e+00	2.91571000e-03	1.00537772e-04
1.38000000e+00	2.91754927e-03	1.00792979e-04
1.38500000e+00	2.92509138e-03	1.01597108e-04
1.39000000e+00	2.94090860e-03	1.02882387e-04
1.39500000e+00	2.89915411e-03	9.98787065e-05
1.40000000e+00	2.93113003e-03	1.04169090e-04
1.40500000e+00	2.88641536e-03	1.10368663e-04
1.41000000e+00	2.87853334e-03	1.15220681e-04
1.41500000e+00	2.85889156e-03	1.18685847e-04
1.42000000e+00	2.85675454e-03	1.23244376e-04
1.42500000e+00	2.83635947e-03	1.26032740e-04
1.43000000e+00	2.81934123e-03	1.29960395e-04
1.43500000e+00	2.83739138e-03	1.35015834e-04
1.44000000e+00	2.77867736e-03	1.37165049e-04
1.44500000e+00	2.79678095e-03	1.41700443e-04
1.45000000e+00	2.84311507e-03	1.39503549e-04
1.45500000e+00	2.91194813e-03	1.28168523e-04
1.46000000e+00	2.84859092e-03	1.22267536e-04
1.46500000e+00	2.86910927e-03	1.21201454e-04
1.47000000e+00	2.87500871e-03	1.21050320e-04
1.47500000e+00	2.86324771e-03	1.16945153e-04
1.48000000e+00	2.86235068e-03	1.15780745e-04
1.48500000e+00	2.85233741e-03	1.15365260e-04
1.49000000e+00	2.87304749e-03	1.16570732e-04
1.49500000e+00	2.88136548e-03	1.14249424e-04
1.50000000e+00	2.87636340e-03	1.13664152e-04
1.50500000e+00	2.85395292e-03	1.13442168e-04
1.51000000e+00	2.87282320e-03	1.14402580e-04
1.51500000e+00	2.87625544e-03	1.12640068e-04
1.52000000e+00	2.85290560e-03	1.11476030e-04
1.52500000e+00	2.89083949e-03	1.12702823e-04
1.53000000e+00	2.88875008e-03	1.13317954e-04
1.53500000e+00	2.87641441e-03	1.09552309e-04
1.54000000e+00	2.85174976e-03	1.08455162e-04
1.54500000e+00	2.85714939e-03	1.08446684e-04
1.55000000e+00	2.83884630e-03	1.07557125e-04
1.55500000e+00	2.83923643e-03	1.05111107e-04
1.56000000e+00	2.82903595e-03	1.04985597e-04
1.56500000e+00	2.79434349e-03	1.03172274e-04
1.57000000e+00	2.79762560e-03	1.02635047e-04
1.57500000e+00	2.78950269e-03	1.00330418e-04
1.58000000e+00	2.76315662e-03	9.93344974e-05
1.58500000e+00	2.74600506e-03	9.86164693e-05
1.59000000e+00	2.76954098e-03	9.94803597e-05
1.59500000e+00	2.75730411e-03	9.71932150e-05
1.60000000e+00	2.73135745e-03	9.61900980e-05
1.60500000e+00	2.75038689e-03	9.69703834e-05
1.61000000e+00	2.74730204e-03	9.64478660e-05
1.61500000e+00	2.72800696e-03	9.48784513e-05
1.62000000e+00	2.74377705e-03	9.58936668e-05
1.62500000e+00	2.71122636e-03	9.57930968e-05
1.63000000e+00	2.69697294e-03	9.43144996e-05
1.63500000e+00	2.69531706e-03	9.42202770e-05
1.64000000e+00	2.67151031e-03	9.34598135e-05
1.64500000e+00	2.69805496e-03	9.53705686e-05
1.65000000e+00	2.70492210e-03	9.46383087e-05
1.65500000e+00	2.68357725e-03	9.37619468e-05
1.66000000e+00	2.69611109e-03	9.42697217e-05
1.66500000e+00	2.67491927e-03	9.51425966e-05
1.67000000e+00	2.65987505e-03	9.26809447e-05
1.67500000e+00	2.67872175e-03	9.35678438e-05
1.68000000e+00	2.65050676e-03	9.27664937e-05
1.68500000e+00	2.63639033e-03	9.39232543e-05
1.69000000e+00	2.64209967e-03	9.22238859e-05
1.69500000e+00	2.64208183e-03	9.20977182e-05
1.70000000e+00	2.62238791e-03	9.24317037e-05
1.70500000e+00	2.62019093e-03	9.27772432e-05
1.71000000e+00	2.63073257e-03	9.19624721e-05
1.71500000e+00	2.60814388e-03	9.10880962e-05
1.72000000e+00	2.60931295e-03	9.18171106e-05
1.72500000e+00	2.58161656e-03	9.14358025e-05
1.73000000e+00	2.60299736e-03	9.09659048e-05
1.73500000e+00	2.60005679e-03	9.10957200e-05
1.74000000e+00	2.57779288e-03	9.05993830e-05
1.74500000e+00	2.56897944e-03	9.13560347e-05
1.75000000e+00	2.58684708e-03	9.02166903e-05
1.75500000e+00	2.57361138e-03	9.03238346e-05
1.76000000e+00	2.55451825e-03	8.96173062e-05
1.76500000e+00	2.53987201e-03	9.02547231e-05
1.77000000e+00	2.53372397e-03	8.84857591e-05
1.77500000e+00	2.55034018e-03	8.93629047e-05
1.78000000e+00	2.53344034e-03	8.89830342e-05
1.78500000e+00	2.51463101e-03	8.92694730e-05
1.79000000e+00	2.51493396e-03	8.78034586e-05
1.79500000e+00	2.49346020e-03	8.73743404e-05
1.80000000e+00	2.50893727e-03	8.83654753e-05
1.80500000e+00	2.50845197e-03	8.89300686e-05
1.81000000e+00	2.49826405e-03	8.73140525e-05
1.81500000e+00	2.47718431e-03	8.66689647e-05
1.82000000e+00	2.46874720e-03	8.69088446e-05
1.82500000e+00	2.47579583e-03	8.77044550e-05
1.83000000e+00	2.47315367e-03	8.64065483e-05
1.83500000e+00	2.44796319e-03	8.58024366e-05
1.84000000e+00	2.43935360e-03	8.60060194e-05
1.84500000e+00	2.43637497e-03	8.63168248e-05
1.85000000e+00	2.44604911e-03	8.57230810e-05
1.85500000e+00	2.40779946e-03	8.43482389e-05
1.86000000e+00	2.40731537e-03	8.49276251e-05
1.86500000e+00	2.42538311e-03	8.57377828e-05
1.87000000e+00	2.40055750e-03	8.39495954e-05
1.87500000e+00	2.37739255e-03	8.34037518e-05
1.88000000e+00	2.40153250e-03	8.45946482e-05
1.88500000e+00	2.38382855e-03	8.44959017e-05
1.89000000e+00	2.37902760e-03	8.31632124e-05
1.89500000e+00	2.36882788e-03	8.32407975e-05
1.90000000e+00	2.35078275e-03	8.28572293e-05
1.90500000e+00	2.35241329e-03	8.30054334e-05
1.91000000e+00	2.34856736e-03	8.22905633e-05
1.91500000e+00	2.33853882e-03	8.20380639e-05
1.92000000e+00	2.32859419e-03	8.20925274e-05
1.92500000e+00	2.32200789e-03	8.19740074e-05
1.93000000e+00	2.31958587e-03	8.11637458e-05
1.93500000e+00	2.31022691e-03	8.10742326e-05
1.94000000e+00	2.31741908e-03	8.19603397e-05
1.94500000e+00	2.28281023e-03	8.05069366e-05
1.95000000e+00	2.27143035e-03	7.93985808e-05
1.95500000e+00	2.28087287e-03	7.99729133e-05
1.96000000e+00	2.25800653e-03	7.97823693e-05
1.96500000e+00	2.29705147e-03	8.11105072e-05
1.97000000e+00	2.26610546e-03	7.91000693e-05
1.97500000e+00	2.26795120e-03	7.97648945e-05
1.98000000e+00	2.26360698e-03	7.98971762e-05
1.98500000e+00	2.24176709e-03	7.92957809e-05
1.99000000e+00	2.22881672e-03	7.78253236e-05
1.99500000e+00	2.22209641e-03	7.79669323e-05
2.00000000e+00	2.21806857e-03	7.83874986e-05
2.00500000e+00	2.24219259e-03	7.93637496e-05
2.01000000e+00	2.20012702e-03	8.54862958e-05
2.01500000e+00	2.18410610e-03	9.01614607e-05
2.02000000e+00	2.16198671e-03	9.50991524e-05
2.02500000e+00	2.15578178e-03	9.85553926e-05
2.03000000e+00	2.14130156e-03	1.03748046e-04
2.03500000e+00	2.12693144e-03	1.07646808e-04
2.04000000e+00	2.12988068e-03	1.12610462e-04
2.04500000e+00	2.10087193e-03	1.16900040e-04
2.05000000e+00	2.06802537e-03	1.20748892e-04
2.05500000e+00	2.08236748e-03	1.19298205e-04
2.06000000e+00	2.12091522e-03	1.05682562e-04
2.06500000e+00	2.11676675e-03	1.00691048e-04
2.07000000e+00	2.11501612e-03	9.51499881e-05
2.07500000e+00	2.11663665e-03	9.31907248e-05
2.08000000e+00	2.10271357e-03	9.22672251e-05
2.08500000e+00	2.12254596e-03	9.24517246e-05
2.09000000e+00	2.10956634e-03	8.91132253e-05
2.09500000e+00	2.10289310e-03	8.78119306e-05
2.10000000e+00	2.08697418e-03	8.66618799e-05
2.10500000e+00	2.06349580e-03	8.53720461e-05
2.11000000e+00	2.06179202e-03	8.22338895e-05
2.11500000e+00	2.06065761e-03	8.14221933e-05
2.12000000e+00	2.04439616e-03	8.02778707e-05
2.12500000e+00	2.03340353e-03	7.96473592e-05
2.13000000e+00	2.01847085e-03	7.57982367e-05
2.13500000e+00	1.97568860e-03	7.33129747e-05
2.14000000e+00	1.97185638e-03	7.24366778e-05
2.14500000e+00	1.96198650e-03	7.23729685e-05
2.15000000e+00	1.95355393e-03	6.96433031e-05
2.15500000e+00	1.94117257e-03	6.93805599e-05
2.16000000e+00	1.94891501e-03	6.92704594e-05
2.16500000e+00	1.95011917e-03	6.98777728e-05
2.17000000e+00	1.93560015e-03	6.76046458e-05
2.17500000e+00	1.90373185e-03	6.66650840e-05
2.18000000e+00	1.91882255e-03	6.73519547e-05
2.18500000e+00	1.88059561e-03	6.64452385e-05
2.19000000e+00	1.89040209e-03	6.65527174e-05
2.19500000e+00	1.88507332e-03	6.60423956e-05
2.20000000e+00	1.85484527e-03	6.51361209e-05
2.20500000e+00	1.87283430e-03	6.59500118e-05
2.21000000e+00	1.85735483e-03	6.57031691e-05
2.21500000e+00	1.86769501e-03	6.53651676e-05
2.22000000e+00	1.83082124e-03	6.39301085e-05
2.22500000e+00	1.81931809e-03	6.41759579e-05
2.23000000e+00	1.81459387e-03	6.43756572e-05
2.23500000e+00	1.79129990e-03	6.26499550e-05
2.24000000e+00	1.78862894e-03	6.25971545e-05
2.24500000e+00	1.79922847e-03	6.34443584e-05
2.25000000e+00	1.77437492e-03	6.30736998e-05
2.25500000e+00	1.75193630e-03	6.11546496e-05
2.26000000e+00	1.75678530e-03	6.14663941e-05
2.26500000e+00	1.73291348e-03	6.08977603e-05
2.27000000e+00	1.73404306e-03	6.18392276e-05
2.27500000e+00	1.72058767e-03	6.01357779e-05
2.28000000e+00	1.70195710e-03	5.95028318e-05
2.28500000e+00	1.69401894e-03	5.96137840e-05
2.29000000e+00	1.68605025e-03	5.96441265e-05
2.29500000e+00	1.66281304e-03	5.86954498e-05
2.30000000e+00	1.65316042e-03	5.78182429e-05
2.30500000e+00	1.65175901e-03	5.78570084e-05
2.31000000e+00	1.64181013e-03	5.78709573e-05
2.31500000e+00	1.61376991e-03	5.73164773e-05
2.32000000e+00	1.61526354e-03	5.61571286e-05
2.32500000e+00	1.59848722e-03	5.60407422e-05
2.33000000e+00	1.58565340e-03	5.57478622e-05
2.33500000e+00	1.57504089e-03	5.59292879e-05
2.34000000e+00	1.57539665e-03	5.49558141e-05
2.34500000e+00	1.56083556e-03	5.45251882e-05
2.35000000e+00	1.53889776e-03	5.40050509e-05
2.35500000e+00	1.54116728e-03	5.47205549e-05
2.36000000e+00	1.54070734e-03	5.39905746e-05
2.36500000e+00	1.51983703e-03	5.31942868e-05
2.37000000e+00	1.52027255e-03	5.32594040e-05
2.37500000e+00	1.50556825e-03	5.30818139e-05
2.38000000e+00	1.49858069e-03	5.31242552e-05
2.38500000e+00	1.50522251e-03	5.25993308e-05
2.39000000e+00	1.47940466e-03	5.18521795e-05
2.39500000e+00	1.47185716e-03	5.19327543e-05
2.40000000e+00	1.45057687e-03	5.19020765e-05
2.40500000e+00	1.44047998e-03	5.04377944e-05
2.41000000e+00	1.44325318e-03	5.08252263e-05
2.41500000e+00	1.44369191e-03	5.08398693e-05
2.42000000e+00	1.42077337e-03	5.06725848e-05
2.42500000e+00	1.42183334e-03	5.06490994e-05
2.43000000e+00	1.42560107e-03	5.02443636e-05
2.43500000e+00	1.39605362e-03	4.95074119e-05
2.44000000e+00	1.39175639e-03	4.93211827e-05
2.44500000e+00	1.37250325e-03	4.92897200e-05
2.45000000e+00	1.37082264e-03	4.83876834e-05
2.45500000e+00	1.35365877e-03	4.79674663e-05
2.46000000e+00	1.36415941e-03	4.85617709e-05
2.46500000e+00	1.35743968e-03	4.88802323e-05
2.47000000e+00	1.34610190e-03	4.79401908e-05
2.47500000e+00	1.32114302e-03	4.67696752e-05
2.48000000e+00	1.31617407e-03	4.69921386e-05
2.48500000e+00	1.32121831e-03	4.73039282e-05
2.49000000e+00	1.31335979e-03	4.75217422e-05
2.49500000e+00	1.29311502e-03	4.59776704e-05
2.50000000e+00	1.29637237e-03	4.62270299e-05
2.50500000e+00	1.28932940e-03	4.62323172e-05
2.51000000e+00	1.28330117e-03	4.63437474e-05
2.51500000e+00	1.27184728e-03	4.59443470e-05
2.52000000e+00	1.25564513e-03	4.48973895e-05
2.52500000e+00	1.25993160e-03	4.53772676e-05
2.53000000e+00	1.24485732e-03	4.51579615e-05
2.53500000e+00	1.23952854e-03	4.55823679e-05
2.54000000e+00	1.23223207e-03	4.45643167e-05
2.54500000e+00	1.22771584e-03	4.45763548e-05
2.55000000e+00	1.22121023e-03	4.45515544e-05
2.55500000e+00	1.20094896e-03	4.42411123e-05
2.56000000e+00	1.20937580e-03	4.46880926e-05
2.56500000e+00	1.21208241e-03	4.44416981e-05
2.57000000e+00	1.19710756e-03	4.40894358e-05
2.57500000e+00	1.18758478e-03	4.38787612e-05
2.58000000e+00	1.19144617e-03	4.47181850e-05
2.58500000e+00	1.17760316e-03	4.38366570e-05
2.59000000e+00	1.16176420e-03	4.30823491e-05
2.59500000e+00	1.16429671e-03	4.34311652e-05
2.60000000e+00	1.14823186e-03	4.30564902e-05
2.60500000e+00	1.17116198e-03	4.49346815e-05
2.61000000e+00	1.15674874e-03	5.05753932e-05
2.61500000e+00	1.15205988e-03	5.56304267e-05
2.62000000e+00	1.14960982e-03	6.09513469e-05
2.62500000e+00	1.12617334e-03	6.47747004e-05
2.63000000e+00	1.12655954e-03	7.16083778e-05
2.63500000e+00	1.12168206e-03	7.90547146e-05
2.64000000e+00	1.11028381e-03	8.64821144e-05
2.64500000e+00	1.11131227e-03	9.20832908e-05
2.65000000e+00	1.11272710e-03	9.76391962e-05
2.65500000e+00	1.08440703e-03	1.02589892e-04
2.66000000e+00	1.11381156e-03	1.12565535e-04
2.66500000e+00	1.06788482e-03	1.21375407e-04
2.67000000e+00	1.07698098e-03	1.33337207e-04
2.67500000e+00	1.08875269e-03	1.56793121e-04
2.68000000e+00	1.06733667e-03	1.78300307e-04
2.68500000e+00	1.07848510e-03	2.42001322e-04
2.69000000e+00	1.14702776e-03	4.06500922e-04
2.69500000e+00	0.00000000e+00	0.00000000e+00
2.70000000e+00	0.00000000e+00	0.00000000e+00
