% Filename : WDL1_00002_00005.h5
% Date & Time : 30-Oct-2025 14:16:27
% X-ray Energy (keV) : 13.30001
% Exposure Time (s) : 0.200
% Photodiode Value : 56881.000
% I0 of Sample : 0
% I0 of Standard : 1
% 
% q(A^-1)   I(q)    I(q)_SE
8.40000000e-01	0.00000000e+00	0.00000000e+00
8.45000000e-01	2.92599483e-03	5.18583781e-04
8.50000000e-01	2.73384958e-03	2.56829426e-04
8.55000000e-01	2.65056915e-03	2.19426308e-04
8.60000000e-01	2.72242985e-03	1.94284045e-04
8.65000000e-01	2.70471439e-03	1.78117167e-04
8.70000000e-01	2.61700439e-03	1.64549026e-04
8.75000000e-01	2.62901719e-03	1.58718883e-04
8.80000000e-01	2.65190471e-03	1.54870685e-04
8.85000000e-01	2.67849892e-03	1.47843454e-04
8.90000000e-01	2.69254457e-03	1.45692825e-04
8.95000000e-01	2.71756217e-03	1.42405487e-04
9.00000000e-01	2.71596352e-03	1.41441857e-04
9.05000000e-01	2.68338239e-03	1.33844719e-04
9.10000000e-01	2.70766368e-03	1.32406020e-04
9.15000000e-01	2.67637865e-03	1.28638031e-04
9.20000000e-01	2.68465999e-03	1.28684404e-04
9.25000000e-01	2.74778074e-03	1.25944317e-04
9.30000000e-01	2.73209201e-03	1.24206489e-04
9.35000000e-01	2.73550680e-03	1.21968181e-04
9.40000000e-01	2.71890147e-03	1.21667361e-04
9.45000000e-01	2.73282423e-03	1.19255339e-04
9.50000000e-01	2.76987153e-03	1.18937246e-04
9.55000000e-01	2.78151025e-03	1.17406111e-04
9.60000000e-01	2.77692662e-03	1.17246340e-04
9.65000000e-01	2.72289463e-03	1.13099639e-04
9.70000000e-01	2.79049380e-03	1.14181072e-04
9.75000000e-01	2.77398497e-03	1.12002854e-04
9.80000000e-01	2.79493348e-03	1.11834518e-04
9.85000000e-01	2.78421915e-03	1.11397121e-04
9.90000000e-01	2.76955535e-03	1.07651886e-04
9.95000000e-01	2.81326227e-03	1.08721679e-04
1.00000000e+00	2.77706613e-03	1.06933081e-04
1.00500000e+00	2.79568013e-03	1.07685313e-04
1.01000000e+00	2.77550610e-03	1.04707823e-04
1.01500000e+00	2.77428326e-03	1.03731163e-04
1.02000000e+00	2.76806074e-03	1.03242558e-04
1.02500000e+00	2.78370377e-03	1.02718527e-04
1.03000000e+00	2.78348125e-03	1.02473884e-04
1.03500000e+00	2.73469706e-03	9.91701819e-05
1.04000000e+00	2.75687792e-03	9.93624477e-05
1.04500000e+00	2.74754845e-03	9.91111340e-05
1.05000000e+00	2.72603863e-03	9.79032426e-05
1.05500000e+00	2.71849757e-03	9.58971201e-05
1.06000000e+00	2.73285251e-03	9.63348176e-05
1.06500000e+00	2.75554272e-03	9.70533199e-05
1.07000000e+00	2.72967488e-03	9.59860466e-05
1.07500000e+00	2.75783077e-03	9.63706369e-05
1.08000000e+00	2.75185876e-03	9.55877476e-05
1.08500000e+00	2.75349650e-03	9.55690473e-05
1.09000000e+00	2.74042322e-03	9.55867052e-05
1.09500000e+00	2.76857145e-03	9.48998209e-05
1.10000000e+00	2.78215747e-03	9.59518542e-05
1.10500000e+00	2.80227187e-03	9.68798049e-05
1.11000000e+00	2.78087707e-03	9.62017770e-05
1.11500000e+00	2.76889045e-03	9.51685806e-05
1.12000000e+00	2.81274749e-03	9.68229490e-05
1.12500000e+00	2.83810703e-03	9.76059024e-05
1.13000000e+00	2.83141715e-03	9.85215111e-05
1.13500000e+00	2.86964755e-03	9.85593256e-05
1.14000000e+00	2.82405177e-03	9.69818807e-05
1.14500000e+00	2.85153790e-03	9.86688517e-05
1.15000000e+00	2.86529114e-03	9.96318326e-05
1.15500000e+00	2.86144007e-03	9.84066806e-05
1.16000000e+00	2.86535774e-03	9.88682738e-05
1.16500000e+00	2.87185964e-03	9.89024521e-05
1.17000000e+00	2.85439171e-03	9.94987777e-05
1.17500000e+00	2.89479307e-03	9.95203697e-05
1.18000000e+00	2.88993561e-03	9.98760433e-05
1.18500000e+00	2.92193004e-03	1.00791201e-04
1.19000000e+00	2.87086715e-03	1.00129888e-04
1.19500000e+00	2.88256367e-03	9.90675832e-05
1.20000000e+00	2.92019156e-03	1.01094033e-04
1.20500000e+00	2.91889940e-03	1.01081243e-04
1.21000000e+00	2.92928206e-03	1.02703738e-04
1.21500000e+00	2.94116771e-03	1.01313808e-04
1.22000000e+00	2.88770960e-03	9.96452573e-05
1.22500000e+00	2.93395005e-03	1.01643123e-04
1.23000000e+00	2.93119339e-03	1.02449216e-04
1.23500000e+00	2.94192623e-03	1.02051862e-04
1.24000000e+00	2.94116764e-03	1.01413485e-04
1.24500000e+00	2.90818482e-03	1.01147055e-04
1.25000000e+00	2.94514260e-03	1.02988943e-04
1.25500000e+00	2.91990050e-03	1.01062759e-04
1.26000000e+00	2.90430017e-03	1.01148259e-04
1.26500000e+00	2.89310892e-03	1.00097432e-04
1.27000000e+00	2.96363385e-03	1.04126776e-04
1.27500000e+00	2.94546756e-03	1.02530359e-04
1.28000000e+00	2.93071623e-03	1.01349083e-04
1.28500000e+00	2.93862163e-03	1.02197913e-04
1.29000000e+00	2.92395351e-03	1.02481911e-04
1.29500000e+00	2.92994843e-03	1.01635944e-04
1.30000000e+00	2.95084904e-03	1.02014951e-04
1.30500000e+00	2.95021487e-03	1.02745363e-04
1.31000000e+00	2.93829486e-03	1.03565383e-04
1.31500000e+00	2.92600166e-03	1.01843723e-04
1.32000000e+00	3.01374464e-03	1.04626828e-04
1.32500000e+00	2.96194583e-03	1.03040953e-04
1.33000000e+00	2.90894703e-03	1.02367280e-04
1.33500000e+00	2.94965520e-03	1.02543709e-04
1.34000000e+00	2.93910089e-03	1.02298883e-04
1.34500000e+00	2.94436910e-03	1.02859313e-04
1.35000000e+00	2.93140366e-03	1.03246653e-04
1.35500000e+00	2.94377589e-03	1.02415042e-04
1.36000000e+00	2.93917485e-03	1.02187027e-04
1.36500000e+00	2.94576634e-03	1.02738137e-04
1.37000000e+00	2.94484404e-03	1.04250108e-04
1.37500000e+00	2.92199873e-03	1.01548869e-04
1.38000000e+00	2.93898021e-03	1.02666255e-04
1.38500000e+00	2.91524864e-03	1.02171162e-04
1.39000000e+00	2.96744192e-03	1.04655864e-04
1.39500000e+00	2.94291899e-03	1.02312338e-04
1.40000000e+00	2.95715946e-03	1.05927778e-04
1.40500000e+00	2.92892980e-03	1.13219780e-04
1.41000000e+00	2.88797595e-03	1.16775188e-04
1.41500000e+00	2.88235174e-03	1.20805937e-04
1.42000000e+00	2.86871109e-03	1.25175319e-04
1.42500000e+00	2.87310169e-03	1.28926494e-04
1.43000000e+00	2.88080147e-03	1.34128453e-04
1.43500000e+00	2.82960325e-03	1.35874853e-04
1.44000000e+00	2.82405192e-03	1.40792278e-04
1.44500000e+00	2.79954255e-03	1.43414087e-04
1.45000000e+00	2.88670758e-03	1.42832810e-04
1.45500000e+00	2.93200452e-03	1.30473019e-04
1.46000000e+00	2.93613025e-03	1.27253720e-04
1.46500000e+00	2.85943827e-03	1.21773678e-04
1.47000000e+00	2.86245467e-03	1.21887267e-04
1.47500000e+00	2.91205952e-03	1.20252272e-04
1.48000000e+00	2.89160739e-03	1.18149982e-04
1.48500000e+00	2.89524452e-03	1.18453498e-04
1.49000000e+00	2.87641761e-03	1.17997024e-04
1.49500000e+00	2.87566010e-03	1.15255855e-04
1.50000000e+00	2.87473391e-03	1.14688155e-04
1.50500000e+00	2.88315414e-03	1.15630719e-04
1.51000000e+00	2.88601279e-03	1.15890981e-04
1.51500000e+00	2.89824293e-03	1.14640570e-04
1.52000000e+00	2.87635717e-03	1.13420970e-04
1.52500000e+00	2.94419234e-03	1.16121016e-04
1.53000000e+00	2.90987022e-03	1.14999203e-04
1.53500000e+00	2.88997326e-03	1.11203691e-04
1.54000000e+00	2.89095889e-03	1.11169387e-04
1.54500000e+00	2.93205142e-03	1.12419431e-04
1.55000000e+00	2.89037112e-03	1.10510051e-04
1.55500000e+00	2.84708054e-03	1.06324695e-04
1.56000000e+00	2.82762335e-03	1.05949606e-04
1.56500000e+00	2.83245082e-03	1.05614655e-04
1.57000000e+00	2.81091567e-03	1.04071086e-04
1.57500000e+00	2.79013851e-03	1.01358362e-04
1.58000000e+00	2.82156766e-03	1.02264231e-04
1.58500000e+00	2.77164029e-03	1.00548947e-04
1.59000000e+00	2.75552829e-03	1.00033248e-04
1.59500000e+00	2.77056413e-03	9.86680183e-05
1.60000000e+00	2.75530661e-03	9.80226759e-05
1.60500000e+00	2.77686916e-03	9.86572604e-05
1.61000000e+00	2.76549535e-03	9.80862221e-05
1.61500000e+00	2.74985547e-03	9.66042555e-05
1.62000000e+00	2.76176378e-03	9.75122206e-05
1.62500000e+00	2.68302974e-03	9.58032180e-05
1.63000000e+00	2.76537374e-03	9.75318465e-05
1.63500000e+00	2.71310034e-03	9.59393693e-05
1.64000000e+00	2.72620106e-03	9.62856301e-05
1.64500000e+00	2.71560993e-03	9.70490974e-05
1.65000000e+00	2.70341663e-03	9.55248576e-05
1.65500000e+00	2.69993425e-03	9.52429451e-05
1.66000000e+00	2.71309218e-03	9.59323159e-05
1.66500000e+00	2.67670954e-03	9.61940622e-05
1.67000000e+00	2.66014651e-03	9.36390045e-05
1.67500000e+00	2.68960432e-03	9.47719880e-05
1.68000000e+00	2.69103315e-03	9.52452347e-05
1.68500000e+00	2.65771669e-03	9.55980743e-05
1.69000000e+00	2.65974927e-03	9.37406778e-05
1.69500000e+00	2.68559556e-03	9.44740645e-05
1.70000000e+00	2.66475337e-03	9.49500509e-05
1.70500000e+00	2.63476701e-03	9.43867726e-05
1.71000000e+00	2.66160253e-03	9.39473792e-05
1.71500000e+00	2.64915526e-03	9.35521577e-05
1.72000000e+00	2.63255636e-03	9.37484110e-05
1.72500000e+00	2.59510080e-03	9.29514310e-05
1.73000000e+00	2.60189642e-03	9.17363562e-05
1.73500000e+00	2.60607920e-03	9.23051019e-05
1.74000000e+00	2.60933175e-03	9.24579748e-05
1.74500000e+00	2.58707858e-03	9.29407836e-05
1.75000000e+00	2.62058077e-03	9.23645498e-05
1.75500000e+00	2.59575188e-03	9.19820059e-05
1.76000000e+00	2.52397271e-03	8.95604171e-05
1.76500000e+00	2.56125114e-03	9.20734251e-05
1.77000000e+00	2.58576900e-03	9.12854199e-05
1.77500000e+00	2.52119374e-03	8.93243729e-05
1.78000000e+00	2.54829030e-03	9.04105612e-05
1.78500000e+00	2.54011747e-03	9.10596022e-05
1.79000000e+00	2.55052051e-03	8.98319462e-05
1.79500000e+00	2.51266630e-03	8.89523080e-05
1.80000000e+00	2.52107642e-03	8.98615693e-05
1.80500000e+00	2.50636140e-03	8.99321362e-05
1.81000000e+00	2.47570354e-03	8.75586659e-05
1.81500000e+00	2.51719708e-03	8.88312866e-05
1.82000000e+00	2.51914294e-03	8.95091806e-05
1.82500000e+00	2.47293461e-03	8.85623448e-05
1.83000000e+00	2.50752162e-03	8.86717769e-05
1.83500000e+00	2.47217808e-03	8.74994244e-05
1.84000000e+00	2.46397324e-03	8.77176720e-05
1.84500000e+00	2.43736273e-03	8.73111077e-05
1.85000000e+00	2.43221807e-03	8.61428691e-05
1.85500000e+00	2.39986972e-03	8.50609631e-05
1.86000000e+00	2.43741856e-03	8.70569830e-05
1.86500000e+00	2.44165226e-03	8.73577224e-05
1.87000000e+00	2.40470387e-03	8.52085605e-05
1.87500000e+00	2.42589038e-03	8.61035077e-05
1.88000000e+00	2.41962407e-03	8.63836655e-05
1.88500000e+00	2.41644365e-03	8.66649562e-05
1.89000000e+00	2.39808438e-03	8.47582595e-05
1.89500000e+00	2.40002452e-03	8.52764746e-05
1.90000000e+00	2.38132480e-03	8.49261660e-05
1.90500000e+00	2.37839243e-03	8.49801080e-05
1.91000000e+00	2.34927564e-03	8.33415434e-05
1.91500000e+00	2.37827882e-03	8.43379862e-05
1.92000000e+00	2.36100372e-03	8.42339865e-05
1.92500000e+00	2.35654612e-03	8.41526781e-05
1.93000000e+00	2.32592772e-03	8.22731359e-05
1.93500000e+00	2.35127451e-03	8.35289096e-05
1.94000000e+00	2.33666314e-03	8.35023842e-05
1.94500000e+00	2.32621468e-03	8.29482223e-05
1.95000000e+00	2.29449103e-03	8.10639954e-05
1.95500000e+00	2.29766748e-03	8.16420277e-05
1.96000000e+00	2.25250521e-03	8.05332763e-05
1.96500000e+00	2.27050451e-03	8.12330570e-05
1.97000000e+00	2.28076477e-03	8.06891129e-05
1.97500000e+00	2.25851624e-03	8.04046414e-05
1.98000000e+00	2.24739525e-03	8.02897905e-05
1.98500000e+00	2.25261323e-03	8.05985078e-05
1.99000000e+00	2.24325771e-03	7.93313038e-05
1.99500000e+00	2.20861090e-03	7.84300186e-05
2.00000000e+00	2.24311261e-03	8.02865505e-05
2.00500000e+00	2.24534794e-03	8.04352434e-05
2.01000000e+00	2.21529193e-03	8.71696144e-05
2.01500000e+00	2.21553063e-03	9.24137285e-05
2.02000000e+00	2.20922363e-03	9.85295163e-05
2.02500000e+00	2.18007748e-03	1.00990943e-04
2.03000000e+00	2.14310253e-03	1.05085657e-04
2.03500000e+00	2.19450372e-03	1.12277821e-04
2.04000000e+00	2.13413673e-03	1.14674872e-04
2.04500000e+00	2.11447172e-03	1.18751238e-04
2.05000000e+00	2.05054345e-03	1.21905336e-04
2.05500000e+00	2.11304350e-03	1.22595840e-04
2.06000000e+00	2.16784435e-03	1.09381664e-04
2.06500000e+00	2.14735013e-03	1.03754199e-04
2.07000000e+00	2.14418495e-03	9.74924537e-05
2.07500000e+00	2.11658977e-03	9.43258455e-05
2.08000000e+00	2.12821009e-03	9.46805309e-05
2.08500000e+00	2.09911199e-03	9.27252437e-05
2.09000000e+00	2.13628795e-03	9.15044056e-05
2.09500000e+00	2.11753133e-03	8.95712936e-05
2.10000000e+00	2.11498939e-03	8.88506453e-05
2.10500000e+00	2.12780555e-03	8.91729305e-05
2.11000000e+00	2.09599591e-03	8.46980411e-05
2.11500000e+00	2.10144067e-03	8.40483248e-05
2.12000000e+00	2.06364479e-03	8.21925996e-05
2.12500000e+00	2.01358300e-03	8.00335540e-05
2.13000000e+00	2.05992771e-03	7.83855945e-05
2.13500000e+00	1.99857558e-03	7.53538157e-05
2.14000000e+00	1.98841232e-03	7.41286599e-05
2.14500000e+00	1.96106144e-03	7.32371851e-05
2.15000000e+00	1.98159715e-03	7.14496632e-05
2.15500000e+00	1.98396661e-03	7.19974521e-05
2.16000000e+00	1.93722591e-03	6.98743027e-05
2.16500000e+00	1.94330818e-03	7.04048954e-05
2.17000000e+00	1.96176074e-03	6.95204043e-05
2.17500000e+00	1.92515970e-03	6.85110798e-05
2.18000000e+00	1.91318995e-03	6.81955685e-05
2.18500000e+00	1.91685738e-03	6.86476335e-05
2.19000000e+00	1.88971392e-03	6.75707294e-05
2.19500000e+00	1.88443273e-03	6.69376366e-05
2.20000000e+00	1.88423150e-03	6.71453085e-05
2.20500000e+00	1.85914430e-03	6.65373495e-05
2.21000000e+00	1.86260839e-03	6.69326403e-05
2.21500000e+00	1.84504533e-03	6.55582588e-05
2.22000000e+00	1.86909376e-03	6.63923673e-05
2.22500000e+00	1.82238333e-03	6.52039626e-05
2.23000000e+00	1.84498898e-03	6.65073018e-05
2.23500000e+00	1.80556689e-03	6.40984885e-05
2.24000000e+00	1.78463501e-03	6.34703187e-05
2.24500000e+00	1.79385986e-03	6.41929850e-05
2.25000000e+00	1.76589950e-03	6.37860357e-05
2.25500000e+00	1.76330710e-03	6.27184733e-05
2.26000000e+00	1.73799931e-03	6.18699148e-05
2.26500000e+00	1.74605201e-03	6.23112206e-05
2.27000000e+00	1.73468954e-03	6.29320596e-05
2.27500000e+00	1.72983672e-03	6.12998753e-05
2.28000000e+00	1.71333343e-03	6.07568527e-05
2.28500000e+00	1.69627656e-03	6.06678085e-05
2.29000000e+00	1.67583144e-03	6.02555537e-05
2.29500000e+00	1.64747197e-03	5.91036004e-05
2.30000000e+00	1.67225502e-03	5.93882061e-05
2.30500000e+00	1.66130745e-03	5.92109783e-05
2.31000000e+00	1.64440572e-03	5.89662051e-05
2.31500000e+00	1.63436174e-03	5.89814130e-05
2.32000000e+00	1.62548291e-03	5.73810756e-05
2.32500000e+00	1.60973440e-03	5.74515428e-05
2.33000000e+00	1.58737681e-03	5.67724587e-05
2.33500000e+00	1.58950118e-03	5.72078520e-05
2.34000000e+00	1.56713628e-03	5.55605527e-05
2.34500000e+00	1.56498297e-03	5.55374233e-05
2.35000000e+00	1.54685930e-03	5.51056077e-05
2.35500000e+00	1.53730774e-03	5.55854240e-05
2.36000000e+00	1.53236789e-03	5.47189888e-05
2.36500000e+00	1.54770859e-03	5.50507625e-05
2.37000000e+00	1.51041647e-03	5.36733226e-05
2.37500000e+00	1.51950346e-03	5.46516728e-05
2.38000000e+00	1.48937942e-03	5.38414606e-05
2.38500000e+00	1.48905698e-03	5.29786703e-05
2.39000000e+00	1.48684159e-03	5.30550449e-05
2.39500000e+00	1.49055200e-03	5.35129366e-05
2.40000000e+00	1.45862919e-03	5.30952797e-05
2.40500000e+00	1.46111815e-03	5.23102237e-05
2.41000000e+00	1.45258583e-03	5.21538211e-05
2.41500000e+00	1.43862991e-03	5.16686436e-05
2.42000000e+00	1.42925868e-03	5.19009590e-05
2.42500000e+00	1.41854050e-03	5.15473404e-05
2.43000000e+00	1.41697085e-03	5.08951274e-05
2.43500000e+00	1.38265495e-03	4.99928906e-05
2.44000000e+00	1.37491104e-03	4.97761346e-05
2.44500000e+00	1.37723272e-03	5.05136570e-05
2.45000000e+00	1.39710928e-03	5.02285134e-05
2.45500000e+00	1.36364688e-03	4.92054752e-05
2.46000000e+00	1.39329121e-03	5.05529789e-05
2.46500000e+00	1.37715509e-03	5.05713848e-05
2.47000000e+00	1.36126592e-03	4.96480987e-05
2.47500000e+00	1.32172650e-03	4.78382713e-05
2.48000000e+00	1.34205827e-03	4.88656828e-05
2.48500000e+00	1.32243257e-03	4.81661831e-05
2.49000000e+00	1.29182204e-03	4.79570191e-05
2.49500000e+00	1.31719746e-03	4.77344204e-05
2.50000000e+00	1.30472200e-03	4.75174819e-05
2.50500000e+00	1.27095119e-03	4.65127411e-05
2.51000000e+00	1.28630660e-03	4.73250938e-05
2.51500000e+00	1.28925398e-03	4.78788426e-05
2.52000000e+00	1.27389631e-03	4.67184426e-05
2.52500000e+00	1.26732527e-03	4.65320572e-05
2.53000000e+00	1.25277599e-03	4.66245791e-05
2.53500000e+00	1.26318058e-03	4.74810829e-05
2.54000000e+00	1.22940974e-03	4.55022574e-05
2.54500000e+00	1.22988595e-03	4.57362166e-05
2.55000000e+00	1.22964925e-03	4.58561319e-05
2.55500000e+00	1.22789871e-03	4.60855564e-05
2.56000000e+00	1.22066078e-03	4.59826314e-05
2.56500000e+00	1.21820110e-03	4.55320753e-05
2.57000000e+00	1.17669576e-03	4.43633154e-05
2.57500000e+00	1.19550479e-03	4.52120673e-05
2.58000000e+00	1.17742850e-03	4.51404368e-05
2.58500000e+00	1.18297221e-03	4.50880797e-05
2.59000000e+00	1.15416864e-03	4.37924783e-05
2.59500000e+00	1.16660514e-03	4.45438071e-05
2.60000000e+00	1.18025429e-03	4.52234691e-05
2.60500000e+00	1.15287978e-03	4.53106245e-05
2.61000000e+00	1.16261432e-03	5.21021090e-05
2.61500000e+00	1.15328391e-03	5.72409900e-05
2.62000000e+00	1.15798177e-03	6.33081304e-05
2.62500000e+00	1.10056198e-03	6.46760202e-05
2.63000000e+00	1.11475894e-03	7.25824893e-05
2.63500000e+00	1.11011150e-03	8.02110973e-05
2.64000000e+00	1.12265690e-03	8.99240230e-05
2.64500000e+00	1.16098886e-03	9.90855546e-05
2.65000000e+00	1.07647144e-03	9.75346311e-05
2.65500000e+00	1.10374461e-03	1.07804903e-04
2.66000000e+00	1.07870308e-03	1.12152381e-04
2.66500000e+00	1.14255786e-03	1.33284127e-04
2.67000000e+00	1.05961659e-03	1.34286350e-04
2.67500000e+00	1.14884678e-03	1.67788410e-04
2.68000000e+00	1.08214425e-03	1.86691102e-04
2.68500000e+00	1.17109570e-03	2.64016586e-04
2.69000000e+00	1.16587985e-03	4.19501815e-04
2.69500000e+00	0.00000000e+00	0.00000000e+00
2.70000000e+00	0.00000000e+00	0.00000000e+00
