% Filename : WDL12_00046_00002.h5
% Date & Time : 30-Oct-2025 18:08:32
% X-ray Energy (keV) : 13.30001
% Exposure Time (s) : 0.500
% Photodiode Value : 141722.000
% I0 of Sample : 0
% I0 of Standard : 1
% 
% q(A^-1)   I(q)    I(q)_SE
8.40000000e-01	0.00000000e+00	0.00000000e+00
8.45000000e-01	2.88537927e-03	5.05906558e-04
8.50000000e-01	2.63257693e-03	2.44470559e-04
8.55000000e-01	2.63305321e-03	2.15215130e-04
8.60000000e-01	2.64565984e-03	1.87019272e-04
8.65000000e-01	2.64672910e-03	1.72621806e-04
8.70000000e-01	2.65719435e-03	1.65017112e-04
8.75000000e-01	2.60773160e-03	1.56067193e-04
8.80000000e-01	2.66589920e-03	1.54018641e-04
8.85000000e-01	2.66627443e-03	1.45653842e-04
8.90000000e-01	2.63598820e-03	1.40964099e-04
8.95000000e-01	2.63928832e-03	1.37246726e-04
9.00000000e-01	2.66705259e-03	1.37391788e-04
9.05000000e-01	2.64570549e-03	1.30390086e-04
9.10000000e-01	2.71112537e-03	1.31001779e-04
9.15000000e-01	2.69451288e-03	1.28140683e-04
9.20000000e-01	2.68215510e-03	1.27419347e-04
9.25000000e-01	2.68774700e-03	1.22126081e-04
9.30000000e-01	2.69689095e-03	1.21419696e-04
9.35000000e-01	2.71866723e-03	1.19874356e-04
9.40000000e-01	2.71340477e-03	1.20021230e-04
9.45000000e-01	2.70999326e-03	1.16938960e-04
9.50000000e-01	2.75190043e-03	1.17118826e-04
9.55000000e-01	2.72323365e-03	1.13734620e-04
9.60000000e-01	2.73221498e-03	1.14250799e-04
9.65000000e-01	2.74998743e-03	1.12989499e-04
9.70000000e-01	2.74356052e-03	1.10974751e-04
9.75000000e-01	2.74311221e-03	1.09613908e-04
9.80000000e-01	2.74170374e-03	1.08740376e-04
9.85000000e-01	2.77848306e-03	1.10279574e-04
9.90000000e-01	2.73724639e-03	1.05250069e-04
9.95000000e-01	2.76965647e-03	1.06123098e-04
1.00000000e+00	2.74995176e-03	1.04835185e-04
1.00500000e+00	2.76770588e-03	1.05642717e-04
1.01000000e+00	2.75336353e-03	1.02862222e-04
1.01500000e+00	2.73942935e-03	1.01373132e-04
1.02000000e+00	2.76141195e-03	1.02039589e-04
1.02500000e+00	2.74765612e-03	1.00244217e-04
1.03000000e+00	2.76154143e-03	1.00440940e-04
1.03500000e+00	2.75908064e-03	9.90712383e-05
1.04000000e+00	2.72882433e-03	9.72210093e-05
1.04500000e+00	2.74210264e-03	9.78582808e-05
1.05000000e+00	2.71764828e-03	9.64278459e-05
1.05500000e+00	2.71581034e-03	9.47897828e-05
1.06000000e+00	2.74666655e-03	9.56641894e-05
1.06500000e+00	2.75258333e-03	9.60154369e-05
1.07000000e+00	2.74308656e-03	9.55152981e-05
1.07500000e+00	2.75398365e-03	9.50946905e-05
1.08000000e+00	2.75627980e-03	9.44832556e-05
1.08500000e+00	2.75387667e-03	9.46495933e-05
1.09000000e+00	2.76146075e-03	9.54167648e-05
1.09500000e+00	2.78669182e-03	9.44711971e-05
1.10000000e+00	2.78503579e-03	9.48972994e-05
1.10500000e+00	2.78349206e-03	9.52047604e-05
1.11000000e+00	2.78729703e-03	9.54682241e-05
1.11500000e+00	2.80810807e-03	9.53867288e-05
1.12000000e+00	2.79977213e-03	9.55577727e-05
1.12500000e+00	2.80855944e-03	9.55643674e-05
1.13000000e+00	2.81588923e-03	9.69106789e-05
1.13500000e+00	2.83501143e-03	9.64645284e-05
1.14000000e+00	2.82541465e-03	9.60188051e-05
1.14500000e+00	2.83918327e-03	9.72195720e-05
1.15000000e+00	2.81429320e-03	9.68821269e-05
1.15500000e+00	2.83220467e-03	9.64558563e-05
1.16000000e+00	2.85964379e-03	9.76858116e-05
1.16500000e+00	2.85453006e-03	9.73921975e-05
1.17000000e+00	2.86589647e-03	9.90854178e-05
1.17500000e+00	2.87760136e-03	9.80224914e-05
1.18000000e+00	2.89472231e-03	9.90048220e-05
1.18500000e+00	2.89629110e-03	9.89290741e-05
1.19000000e+00	2.90509839e-03	1.00239058e-04
1.19500000e+00	2.89393686e-03	9.87040600e-05
1.20000000e+00	2.89875678e-03	9.95286441e-05
1.20500000e+00	2.91591442e-03	9.98301108e-05
1.21000000e+00	2.91943121e-03	1.01249598e-04
1.21500000e+00	2.91664155e-03	9.95469845e-05
1.22000000e+00	2.91970774e-03	9.98382365e-05
1.22500000e+00	2.94010127e-03	1.00824028e-04
1.23000000e+00	2.91532224e-03	1.00768434e-04
1.23500000e+00	2.92656786e-03	1.00384852e-04
1.24000000e+00	2.92534496e-03	9.99536540e-05
1.24500000e+00	2.90653923e-03	1.00133200e-04
1.25000000e+00	2.94538965e-03	1.01997224e-04
1.25500000e+00	2.92691078e-03	1.00168028e-04
1.26000000e+00	2.91734337e-03	1.00392737e-04
1.26500000e+00	2.94491223e-03	1.00996389e-04
1.27000000e+00	2.95289861e-03	1.02773031e-04
1.27500000e+00	2.96589079e-03	1.02096298e-04
1.28000000e+00	2.95362915e-03	1.01103094e-04
1.28500000e+00	2.94594778e-03	1.01428127e-04
1.29000000e+00	2.93025823e-03	1.01720661e-04
1.29500000e+00	2.95231864e-03	1.01483962e-04
1.30000000e+00	2.94459405e-03	1.00955687e-04
1.30500000e+00	2.93670747e-03	1.01222765e-04
1.31000000e+00	2.94498695e-03	1.02746710e-04
1.31500000e+00	2.96503404e-03	1.02043127e-04
1.32000000e+00	2.95642447e-03	1.01674832e-04
1.32500000e+00	2.94741042e-03	1.01645184e-04
1.33000000e+00	2.95218998e-03	1.03078445e-04
1.33500000e+00	2.95541593e-03	1.01788083e-04
1.34000000e+00	2.95907033e-03	1.02018019e-04
1.34500000e+00	2.97223747e-03	1.02830021e-04
1.35000000e+00	2.94205054e-03	1.02710209e-04
1.35500000e+00	2.94938002e-03	1.01689864e-04
1.36000000e+00	2.96745765e-03	1.02033615e-04
1.36500000e+00	2.91856612e-03	1.00697736e-04
1.37000000e+00	2.93418346e-03	1.02760375e-04
1.37500000e+00	2.95712689e-03	1.01937240e-04
1.38000000e+00	2.95159669e-03	1.01966001e-04
1.38500000e+00	2.94110656e-03	1.02168892e-04
1.39000000e+00	2.92041945e-03	1.02079921e-04
1.39500000e+00	2.93561618e-03	1.01162994e-04
1.40000000e+00	2.98533223e-03	1.05911519e-04
1.40500000e+00	2.91393743e-03	1.11412253e-04
1.41000000e+00	2.92472750e-03	1.17055844e-04
1.41500000e+00	2.90424332e-03	1.20467552e-04
1.42000000e+00	2.89439310e-03	1.24806190e-04
1.42500000e+00	2.85418428e-03	1.26778827e-04
1.43000000e+00	2.86726653e-03	1.32257826e-04
1.43500000e+00	2.84889865e-03	1.35160680e-04
1.44000000e+00	2.82574072e-03	1.39520954e-04
1.44500000e+00	2.78340735e-03	1.41017021e-04
1.45000000e+00	2.91245685e-03	1.42581300e-04
1.45500000e+00	2.92198377e-03	1.28603269e-04
1.46000000e+00	2.91029360e-03	1.24942187e-04
1.46500000e+00	2.90735870e-03	1.22751876e-04
1.47000000e+00	2.87665438e-03	1.21164510e-04
1.47500000e+00	2.87569497e-03	1.17455315e-04
1.48000000e+00	2.88897797e-03	1.16829894e-04
1.48500000e+00	2.90315555e-03	1.17463186e-04
1.49000000e+00	2.91939078e-03	1.18491230e-04
1.49500000e+00	2.89702917e-03	1.14892445e-04
1.50000000e+00	2.88959968e-03	1.14313739e-04
1.50500000e+00	2.92421175e-03	1.16161447e-04
1.51000000e+00	2.91801530e-03	1.16188991e-04
1.51500000e+00	2.91976487e-03	1.14466802e-04
1.52000000e+00	2.91692949e-03	1.13935602e-04
1.52500000e+00	2.91913096e-03	1.13813785e-04
1.53000000e+00	2.94243898e-03	1.15400721e-04
1.53500000e+00	2.93114963e-03	1.11711135e-04
1.54000000e+00	2.88857053e-03	1.09960171e-04
1.54500000e+00	2.89105429e-03	1.09821602e-04
1.55000000e+00	2.86291121e-03	1.08430013e-04
1.55500000e+00	2.88227966e-03	1.06711336e-04
1.56000000e+00	2.85850869e-03	1.06077559e-04
1.56500000e+00	2.84185197e-03	1.04838579e-04
1.57000000e+00	2.84837162e-03	1.04393576e-04
1.57500000e+00	2.80037339e-03	1.00667241e-04
1.58000000e+00	2.79366983e-03	1.00327796e-04
1.58500000e+00	2.81354466e-03	1.00989856e-04
1.59000000e+00	2.79336526e-03	1.00405227e-04
1.59500000e+00	2.77584836e-03	9.78034336e-05
1.60000000e+00	2.78626982e-03	9.81379319e-05
1.60500000e+00	2.77538961e-03	9.78243457e-05
1.61000000e+00	2.76250272e-03	9.69857306e-05
1.61500000e+00	2.75058024e-03	9.56686919e-05
1.62000000e+00	2.75916677e-03	9.63346180e-05
1.62500000e+00	2.75801080e-03	9.73976980e-05
1.63000000e+00	2.75805476e-03	9.63733688e-05
1.63500000e+00	2.75818781e-03	9.64348764e-05
1.64000000e+00	2.76423830e-03	9.66544678e-05
1.64500000e+00	2.72122753e-03	9.61992991e-05
1.65000000e+00	2.72991663e-03	9.54775756e-05
1.65500000e+00	2.71545733e-03	9.48537866e-05
1.66000000e+00	2.72400046e-03	9.53056341e-05
1.66500000e+00	2.69935774e-03	9.59065073e-05
1.67000000e+00	2.70835613e-03	9.43478965e-05
1.67500000e+00	2.70034108e-03	9.42674381e-05
1.68000000e+00	2.69212729e-03	9.42272645e-05
1.68500000e+00	2.66837841e-03	9.50261512e-05
1.69000000e+00	2.66525731e-03	9.30703988e-05
1.69500000e+00	2.66608739e-03	9.28966197e-05
1.70000000e+00	2.64346605e-03	9.31515932e-05
1.70500000e+00	2.66973308e-03	9.45352069e-05
1.71000000e+00	2.66553929e-03	9.31696759e-05
1.71500000e+00	2.63557277e-03	9.20552396e-05
1.72000000e+00	2.64931078e-03	9.32805424e-05
1.72500000e+00	2.62900736e-03	9.31122779e-05
1.73000000e+00	2.64141721e-03	9.23149856e-05
1.73500000e+00	2.62937965e-03	9.21450659e-05
1.74000000e+00	2.61027236e-03	9.17027719e-05
1.74500000e+00	2.61225444e-03	9.28956494e-05
1.75000000e+00	2.60597739e-03	9.09098544e-05
1.75500000e+00	2.59765785e-03	9.11077779e-05
1.76000000e+00	2.59009092e-03	9.08732377e-05
1.76500000e+00	2.59231488e-03	9.20413944e-05
1.77000000e+00	2.56546096e-03	8.95941236e-05
1.77500000e+00	2.58324268e-03	9.05105579e-05
1.78000000e+00	2.57205775e-03	9.03541251e-05
1.78500000e+00	2.54236805e-03	9.02981786e-05
1.79000000e+00	2.53860987e-03	8.86173284e-05
1.79500000e+00	2.54188677e-03	8.90236272e-05
1.80000000e+00	2.53252911e-03	8.92032223e-05
1.80500000e+00	2.54034500e-03	9.00094292e-05
1.81000000e+00	2.52775154e-03	8.82802418e-05
1.81500000e+00	2.50798242e-03	8.76412254e-05
1.82000000e+00	2.50975900e-03	8.83517130e-05
1.82500000e+00	2.48746388e-03	8.81102859e-05
1.83000000e+00	2.49446400e-03	8.72246026e-05
1.83500000e+00	2.49478994e-03	8.73490057e-05
1.84000000e+00	2.48806466e-03	8.76329095e-05
1.84500000e+00	2.49260357e-03	8.82787763e-05
1.85000000e+00	2.48091296e-03	8.68358883e-05
1.85500000e+00	2.45554373e-03	8.59426075e-05
1.86000000e+00	2.47311383e-03	8.71882653e-05
1.86500000e+00	2.46848698e-03	8.72712294e-05
1.87000000e+00	2.41632617e-03	8.44824552e-05
1.87500000e+00	2.43002126e-03	8.53201353e-05
1.88000000e+00	2.44378766e-03	8.60841961e-05
1.88500000e+00	2.39448743e-03	8.49094101e-05
1.89000000e+00	2.41462346e-03	8.43699939e-05
1.89500000e+00	2.40648569e-03	8.45756021e-05
1.90000000e+00	2.39122907e-03	8.43402402e-05
1.90500000e+00	2.38584023e-03	8.41423152e-05
1.91000000e+00	2.39206945e-03	8.38399874e-05
1.91500000e+00	2.36948445e-03	8.31200174e-05
1.92000000e+00	2.35627974e-03	8.30666433e-05
1.92500000e+00	2.37749801e-03	8.38990798e-05
1.93000000e+00	2.35419095e-03	8.23822396e-05
1.93500000e+00	2.36244398e-03	8.28743637e-05
1.94000000e+00	2.32156769e-03	8.20662429e-05
1.94500000e+00	2.33211541e-03	8.22698562e-05
1.95000000e+00	2.33336535e-03	8.15175534e-05
1.95500000e+00	2.32592838e-03	8.15938524e-05
1.96000000e+00	2.30864664e-03	8.15362820e-05
1.96500000e+00	2.31373962e-03	8.17579464e-05
1.97000000e+00	2.30624254e-03	8.04842378e-05
1.97500000e+00	2.29036247e-03	8.05074800e-05
1.98000000e+00	2.28940658e-03	8.07429144e-05
1.98500000e+00	2.26461943e-03	8.00621749e-05
1.99000000e+00	2.25798396e-03	7.88859969e-05
1.99500000e+00	2.23881294e-03	7.85935571e-05
2.00000000e+00	2.25206942e-03	7.95194206e-05
2.00500000e+00	2.27772262e-03	8.06023718e-05
2.01000000e+00	2.24653007e-03	8.73224287e-05
2.01500000e+00	2.22202621e-03	9.18077631e-05
2.02000000e+00	2.21761024e-03	9.75636120e-05
2.02500000e+00	2.18013140e-03	9.96260430e-05
2.03000000e+00	2.17236352e-03	1.05162334e-04
2.03500000e+00	2.16558465e-03	1.09304892e-04
2.04000000e+00	2.13363111e-03	1.12725800e-04
2.04500000e+00	2.12777426e-03	1.18407196e-04
2.05000000e+00	2.13039699e-03	1.24264492e-04
2.05500000e+00	2.17080748e-03	1.24180881e-04
2.06000000e+00	2.15499100e-03	1.07253948e-04
2.06500000e+00	2.15430897e-03	1.02431177e-04
2.07000000e+00	2.12353419e-03	9.55522007e-05
2.07500000e+00	2.14080257e-03	9.42508750e-05
2.08000000e+00	2.13888649e-03	9.39674392e-05
2.08500000e+00	2.16323232e-03	9.43048954e-05
2.09000000e+00	2.13362063e-03	9.01862065e-05
2.09500000e+00	2.12849568e-03	8.89977333e-05
2.10000000e+00	2.12247869e-03	8.80650178e-05
2.10500000e+00	2.10663776e-03	8.71171379e-05
2.11000000e+00	2.10012589e-03	8.37205040e-05
2.11500000e+00	2.08896668e-03	8.24618142e-05
2.12000000e+00	2.07041771e-03	8.13315576e-05
2.12500000e+00	2.07144151e-03	8.10968017e-05
2.13000000e+00	2.04443869e-03	7.67886346e-05
2.13500000e+00	2.04147128e-03	7.58015107e-05
2.14000000e+00	2.00193641e-03	7.36579608e-05
2.14500000e+00	1.98682143e-03	7.32938158e-05
2.15000000e+00	2.00188039e-03	7.13580082e-05
2.15500000e+00	1.97914858e-03	7.07436977e-05
2.16000000e+00	1.96330740e-03	6.97998368e-05
2.16500000e+00	1.97080974e-03	7.05467318e-05
2.17000000e+00	1.95499002e-03	6.83395000e-05
2.17500000e+00	1.95749533e-03	6.85719447e-05
2.18000000e+00	1.92728342e-03	6.76586143e-05
2.18500000e+00	1.92404443e-03	6.79140694e-05
2.19000000e+00	1.90865408e-03	6.71991997e-05
2.19500000e+00	1.90167744e-03	6.66340191e-05
2.20000000e+00	1.89985494e-03	6.66917416e-05
2.20500000e+00	1.90055095e-03	6.68921007e-05
2.21000000e+00	1.88847469e-03	6.67840332e-05
2.21500000e+00	1.86742539e-03	6.53467952e-05
2.22000000e+00	1.85029114e-03	6.47081214e-05
2.22500000e+00	1.85085439e-03	6.53524665e-05
2.23000000e+00	1.84943711e-03	6.56145052e-05
2.23500000e+00	1.82271080e-03	6.37260335e-05
2.24000000e+00	1.82485614e-03	6.38320528e-05
2.24500000e+00	1.81808105e-03	6.40877846e-05
2.25000000e+00	1.80411139e-03	6.40582879e-05
2.25500000e+00	1.77616267e-03	6.19583950e-05
2.26000000e+00	1.77421975e-03	6.21475563e-05
2.26500000e+00	1.76743796e-03	6.21779911e-05
2.27000000e+00	1.76061021e-03	6.27461846e-05
2.27500000e+00	1.73421552e-03	6.05108487e-05
2.28000000e+00	1.72761662e-03	6.03797156e-05
2.28500000e+00	1.69560450e-03	5.96228982e-05
2.29000000e+00	1.71563648e-03	6.07580106e-05
2.29500000e+00	1.69667224e-03	5.98256343e-05
2.30000000e+00	1.68446599e-03	5.87930684e-05
2.30500000e+00	1.66029451e-03	5.80934197e-05
2.31000000e+00	1.64923038e-03	5.80997005e-05
2.31500000e+00	1.65722280e-03	5.87897584e-05
2.32000000e+00	1.63596599e-03	5.68776638e-05
2.32500000e+00	1.62001557e-03	5.67981698e-05
2.33000000e+00	1.61299620e-03	5.66996200e-05
2.33500000e+00	1.60289263e-03	5.69429619e-05
2.34000000e+00	1.60685771e-03	5.61640019e-05
2.34500000e+00	1.58531155e-03	5.53569199e-05
2.35000000e+00	1.57699476e-03	5.53128313e-05
2.35500000e+00	1.56341628e-03	5.55408614e-05
2.36000000e+00	1.54407140e-03	5.41000072e-05
2.36500000e+00	1.54467040e-03	5.40280261e-05
2.37000000e+00	1.54229592e-03	5.39415005e-05
2.37500000e+00	1.52871908e-03	5.39528513e-05
2.38000000e+00	1.51644166e-03	5.38126603e-05
2.38500000e+00	1.50228218e-03	5.25673623e-05
2.39000000e+00	1.49976393e-03	5.25672705e-05
2.39500000e+00	1.47952610e-03	5.21857412e-05
2.40000000e+00	1.49872222e-03	5.36184202e-05
2.40500000e+00	1.48758523e-03	5.21791897e-05
2.41000000e+00	1.45340727e-03	5.11735757e-05
2.41500000e+00	1.45478728e-03	5.11739062e-05
2.42000000e+00	1.45052061e-03	5.17169312e-05
2.42500000e+00	1.43008283e-03	5.10084473e-05
2.43000000e+00	1.43104418e-03	5.05133045e-05
2.43500000e+00	1.43127582e-03	5.06539806e-05
2.44000000e+00	1.40879097e-03	5.00313374e-05
2.44500000e+00	1.39329474e-03	5.00995089e-05
2.45000000e+00	1.38622922e-03	4.89180552e-05
2.45500000e+00	1.37131202e-03	4.85702932e-05
2.46000000e+00	1.38084844e-03	4.90899674e-05
2.46500000e+00	1.35804024e-03	4.88790700e-05
2.47000000e+00	1.35355358e-03	4.81933882e-05
2.47500000e+00	1.34512273e-03	4.76731139e-05
2.48000000e+00	1.33233627e-03	4.75949089e-05
2.48500000e+00	1.33358339e-03	4.76483431e-05
2.49000000e+00	1.32478955e-03	4.79622474e-05
2.49500000e+00	1.33437681e-03	4.73989320e-05
2.50000000e+00	1.31188654e-03	4.67153531e-05
2.50500000e+00	1.30693777e-03	4.67853550e-05
2.51000000e+00	1.29438340e-03	4.66249136e-05
2.51500000e+00	1.29456500e-03	4.68081459e-05
2.52000000e+00	1.29583537e-03	4.64284753e-05
2.52500000e+00	1.28739363e-03	4.63369703e-05
2.53000000e+00	1.26030679e-03	4.58137738e-05
2.53500000e+00	1.26016444e-03	4.63529689e-05
2.54000000e+00	1.26167332e-03	4.56092531e-05
2.54500000e+00	1.24803526e-03	4.52969380e-05
2.55000000e+00	1.25836869e-03	4.59535432e-05
2.55500000e+00	1.21928924e-03	4.48862431e-05
2.56000000e+00	1.22061176e-03	4.51886543e-05
2.56500000e+00	1.23014508e-03	4.51352035e-05
2.57000000e+00	1.20817812e-03	4.45584663e-05
2.57500000e+00	1.19428811e-03	4.41042214e-05
2.58000000e+00	1.19919593e-03	4.49902895e-05
2.58500000e+00	1.19740341e-03	4.45569688e-05
2.59000000e+00	1.17863801e-03	4.37171559e-05
2.59500000e+00	1.18091235e-03	4.38867194e-05
2.60000000e+00	1.19565040e-03	4.48188470e-05
2.60500000e+00	1.16848252e-03	4.48006848e-05
2.61000000e+00	1.16846150e-03	5.10606649e-05
2.61500000e+00	1.15389438e-03	5.57082301e-05
2.62000000e+00	1.14264149e-03	6.08577959e-05
2.62500000e+00	1.15308892e-03	6.62503840e-05
2.63000000e+00	1.15609339e-03	7.34393813e-05
2.63500000e+00	1.15153832e-03	8.12847411e-05
2.64000000e+00	1.13605169e-03	8.83988012e-05
2.64500000e+00	1.15606826e-03	9.60056227e-05
2.65000000e+00	1.09771992e-03	9.66511914e-05
2.65500000e+00	1.15872044e-03	1.09398474e-04
2.66000000e+00	1.12007351e-03	1.13429843e-04
2.66500000e+00	1.08730242e-03	1.24093618e-04
2.67000000e+00	1.08026291e-03	1.33440118e-04
2.67500000e+00	1.03830316e-03	1.48807086e-04
2.68000000e+00	1.09766450e-03	1.82949113e-04
2.68500000e+00	1.06133940e-03	2.35585027e-04
2.69000000e+00	1.13499440e-03	4.02081696e-04
2.69500000e+00	0.00000000e+00	0.00000000e+00
2.70000000e+00	0.00000000e+00	0.00000000e+00
