% Filename : WDL1_00022_00031.h5
% Date & Time : 30-Oct-2025 16:49:42
% X-ray Energy (keV) : 13.30001
% Exposure Time (s) : 0.500
% Photodiode Value : 141525.000
% I0 of Sample : 0
% I0 of Standard : 1
% 
% q(A^-1)   I(q)    I(q)_SE
8.40000000e-01	0.00000000e+00	0.00000000e+00
8.45000000e-01	2.79782031e-03	4.90095006e-04
8.50000000e-01	2.64298227e-03	2.45340130e-04
8.55000000e-01	2.61710630e-03	2.13832308e-04
8.60000000e-01	2.59708044e-03	1.83846354e-04
8.65000000e-01	2.63029466e-03	1.71513467e-04
8.70000000e-01	2.59605597e-03	1.61421440e-04
8.75000000e-01	2.61294845e-03	1.56154266e-04
8.80000000e-01	2.62194526e-03	1.51599071e-04
8.85000000e-01	2.64978091e-03	1.44910886e-04
8.90000000e-01	2.64164215e-03	1.41372114e-04
8.95000000e-01	2.65608873e-03	1.38111805e-04
9.00000000e-01	2.65444059e-03	1.36904957e-04
9.05000000e-01	2.68711240e-03	1.32338043e-04
9.10000000e-01	2.67578751e-03	1.29390271e-04
9.15000000e-01	2.64530231e-03	1.25978023e-04
9.20000000e-01	2.67281593e-03	1.26987357e-04
9.25000000e-01	2.68783808e-03	1.22200574e-04
9.30000000e-01	2.69131482e-03	1.21085486e-04
9.35000000e-01	2.68952715e-03	1.18764677e-04
9.40000000e-01	2.70727164e-03	1.19885199e-04
9.45000000e-01	2.72003592e-03	1.17287861e-04
9.50000000e-01	2.70876835e-03	1.15224430e-04
9.55000000e-01	2.73171292e-03	1.14167871e-04
9.60000000e-01	2.70937984e-03	1.13261828e-04
9.65000000e-01	2.72718413e-03	1.12130362e-04
9.70000000e-01	2.74490208e-03	1.11042797e-04
9.75000000e-01	2.73431417e-03	1.09473697e-04
9.80000000e-01	2.75063813e-03	1.09107116e-04
9.85000000e-01	2.72678931e-03	1.08313870e-04
9.90000000e-01	2.74379098e-03	1.05690183e-04
9.95000000e-01	2.74908241e-03	1.05359125e-04
1.00000000e+00	2.74778795e-03	1.04826219e-04
1.00500000e+00	2.73911853e-03	1.04530630e-04
1.01000000e+00	2.74316410e-03	1.02360154e-04
1.01500000e+00	2.74569010e-03	1.01511285e-04
1.02000000e+00	2.74043031e-03	1.01309467e-04
1.02500000e+00	2.73325995e-03	9.98491810e-05
1.03000000e+00	2.75397941e-03	1.00105416e-04
1.03500000e+00	2.71728939e-03	9.75807567e-05
1.04000000e+00	2.71941773e-03	9.70041454e-05
1.04500000e+00	2.72036175e-03	9.71781287e-05
1.05000000e+00	2.71793368e-03	9.63839958e-05
1.05500000e+00	2.71083581e-03	9.46584648e-05
1.06000000e+00	2.71116356e-03	9.43907848e-05
1.06500000e+00	2.69527310e-03	9.39673500e-05
1.07000000e+00	2.72675852e-03	9.48738820e-05
1.07500000e+00	2.73656311e-03	9.45259655e-05
1.08000000e+00	2.72654598e-03	9.36424389e-05
1.08500000e+00	2.74462904e-03	9.42426114e-05
1.09000000e+00	2.73480532e-03	9.44913410e-05
1.09500000e+00	2.75599314e-03	9.34110731e-05
1.10000000e+00	2.75888885e-03	9.41112661e-05
1.10500000e+00	2.75887674e-03	9.43106150e-05
1.11000000e+00	2.76510790e-03	9.47705933e-05
1.11500000e+00	2.77278559e-03	9.42818494e-05
1.12000000e+00	2.78640031e-03	9.50810250e-05
1.12500000e+00	2.79021904e-03	9.50803322e-05
1.13000000e+00	2.80378263e-03	9.65634168e-05
1.13500000e+00	2.79742101e-03	9.52188835e-05
1.14000000e+00	2.82889265e-03	9.61159089e-05
1.14500000e+00	2.82553928e-03	9.67207376e-05
1.15000000e+00	2.82876091e-03	9.74036511e-05
1.15500000e+00	2.84895643e-03	9.69713780e-05
1.16000000e+00	2.87013256e-03	9.80988856e-05
1.16500000e+00	2.84543832e-03	9.72951922e-05
1.17000000e+00	2.86685119e-03	9.90124510e-05
1.17500000e+00	2.85504761e-03	9.72269759e-05
1.18000000e+00	2.86364049e-03	9.79225021e-05
1.18500000e+00	2.89066189e-03	9.86864813e-05
1.19000000e+00	2.86808773e-03	9.90402325e-05
1.19500000e+00	2.88705621e-03	9.85000867e-05
1.20000000e+00	2.88692588e-03	9.90489979e-05
1.20500000e+00	2.89249378e-03	9.91412055e-05
1.21000000e+00	2.87002416e-03	9.95423624e-05
1.21500000e+00	2.90799871e-03	9.92994224e-05
1.22000000e+00	2.87933971e-03	9.84332233e-05
1.22500000e+00	2.87981571e-03	9.88105533e-05
1.23000000e+00	2.90851250e-03	1.00444721e-04
1.23500000e+00	2.88982700e-03	9.93318039e-05
1.24000000e+00	2.90262657e-03	9.91973389e-05
1.24500000e+00	2.91114193e-03	1.00157914e-04
1.25000000e+00	2.94870146e-03	1.02073962e-04
1.25500000e+00	2.90607329e-03	9.93705961e-05
1.26000000e+00	2.92283400e-03	1.00599611e-04
1.26500000e+00	2.91436259e-03	9.99748753e-05
1.27000000e+00	2.92400932e-03	1.01786315e-04
1.27500000e+00	2.91099071e-03	1.00276551e-04
1.28000000e+00	2.94711430e-03	1.00889133e-04
1.28500000e+00	2.92539743e-03	1.00730445e-04
1.29000000e+00	2.94047965e-03	1.02134498e-04
1.29500000e+00	2.94553384e-03	1.01161693e-04
1.30000000e+00	2.92234917e-03	1.00279923e-04
1.30500000e+00	2.94670690e-03	1.01550984e-04
1.31000000e+00	2.92510244e-03	1.02059294e-04
1.31500000e+00	2.93728258e-03	1.01174545e-04
1.32000000e+00	2.93432687e-03	1.01010557e-04
1.32500000e+00	2.92217191e-03	1.00797556e-04
1.33000000e+00	2.92331537e-03	1.02074435e-04
1.33500000e+00	2.95336800e-03	1.01726941e-04
1.34000000e+00	2.96272153e-03	1.02132165e-04
1.34500000e+00	2.92154478e-03	1.01050550e-04
1.35000000e+00	2.91737908e-03	1.01925055e-04
1.35500000e+00	2.93339815e-03	1.01079735e-04
1.36000000e+00	2.92982813e-03	1.00769161e-04
1.36500000e+00	2.92094835e-03	1.00863350e-04
1.37000000e+00	2.93173603e-03	1.02700397e-04
1.37500000e+00	2.91819405e-03	1.00640895e-04
1.38000000e+00	2.89407672e-03	1.00038188e-04
1.38500000e+00	2.92023927e-03	1.01392204e-04
1.39000000e+00	2.93210984e-03	1.02531407e-04
1.39500000e+00	2.95538190e-03	1.01811564e-04
1.40000000e+00	2.96148003e-03	1.05126190e-04
1.40500000e+00	2.91321663e-03	1.11404320e-04
1.41000000e+00	2.89711537e-03	1.15884078e-04
1.41500000e+00	2.88087469e-03	1.19487420e-04
1.42000000e+00	2.87663912e-03	1.24156213e-04
1.42500000e+00	2.83533991e-03	1.25997727e-04
1.43000000e+00	2.84062775e-03	1.30958169e-04
1.43500000e+00	2.81106295e-03	1.33550074e-04
1.44000000e+00	2.83041617e-03	1.39703557e-04
1.44500000e+00	2.80110746e-03	1.41844835e-04
1.45000000e+00	2.90413416e-03	1.42440069e-04
1.45500000e+00	2.90721468e-03	1.27887875e-04
1.46000000e+00	2.86526733e-03	1.23036399e-04
1.46500000e+00	2.89740313e-03	1.22241492e-04
1.47000000e+00	2.86400256e-03	1.20573403e-04
1.47500000e+00	2.86816633e-03	1.17178374e-04
1.48000000e+00	2.87717233e-03	1.16383101e-04
1.48500000e+00	2.90611353e-03	1.17663954e-04
1.49000000e+00	2.83893972e-03	1.15187327e-04
1.49500000e+00	2.87825914e-03	1.14204474e-04
1.50000000e+00	2.87339773e-03	1.13672062e-04
1.50500000e+00	2.89520821e-03	1.15113411e-04
1.51000000e+00	2.87524789e-03	1.14545749e-04
1.51500000e+00	2.88839410e-03	1.13178239e-04
1.52000000e+00	2.88382242e-03	1.12584364e-04
1.52500000e+00	2.91262153e-03	1.13586682e-04
1.53000000e+00	2.88757280e-03	1.13236326e-04
1.53500000e+00	2.87869313e-03	1.09687900e-04
1.54000000e+00	2.88616579e-03	1.09834301e-04
1.54500000e+00	2.86351583e-03	1.08772430e-04
1.55000000e+00	2.87758945e-03	1.09000712e-04
1.55500000e+00	2.85210792e-03	1.05530274e-04
1.56000000e+00	2.82358876e-03	1.04725796e-04
1.56500000e+00	2.81226885e-03	1.03784316e-04
1.57000000e+00	2.80409311e-03	1.02802557e-04
1.57500000e+00	2.78960139e-03	1.00351859e-04
1.58000000e+00	2.78669179e-03	1.00075631e-04
1.58500000e+00	2.76988004e-03	9.94535579e-05
1.59000000e+00	2.78893135e-03	1.00218327e-04
1.59500000e+00	2.77696283e-03	9.78847552e-05
1.60000000e+00	2.75778572e-03	9.71700904e-05
1.60500000e+00	2.77438712e-03	9.77748836e-05
1.61000000e+00	2.74901678e-03	9.64816755e-05
1.61500000e+00	2.73198828e-03	9.49851585e-05
1.62000000e+00	2.75059872e-03	9.61066192e-05
1.62500000e+00	2.70851156e-03	9.56905001e-05
1.63000000e+00	2.73469391e-03	9.56065750e-05
1.63500000e+00	2.72860806e-03	9.53399470e-05
1.64000000e+00	2.69875091e-03	9.43927606e-05
1.64500000e+00	2.70836082e-03	9.57643688e-05
1.65000000e+00	2.68759804e-03	9.39531639e-05
1.65500000e+00	2.69549219e-03	9.41205374e-05
1.66000000e+00	2.70850625e-03	9.46793934e-05
1.66500000e+00	2.67402136e-03	9.50439866e-05
1.67000000e+00	2.67060648e-03	9.30430621e-05
1.67500000e+00	2.66916438e-03	9.31717231e-05
1.68000000e+00	2.66824566e-03	9.35044932e-05
1.68500000e+00	2.67253252e-03	9.51758232e-05
1.69000000e+00	2.64194037e-03	9.22564534e-05
1.69500000e+00	2.65259232e-03	9.24683081e-05
1.70000000e+00	2.66393838e-03	9.38772274e-05
1.70500000e+00	2.62654175e-03	9.29634801e-05
1.71000000e+00	2.62856211e-03	9.19264875e-05
1.71500000e+00	2.63621098e-03	9.20872046e-05
1.72000000e+00	2.60580178e-03	9.17641452e-05
1.72500000e+00	2.63843298e-03	9.34276949e-05
1.73000000e+00	2.60528708e-03	9.10870874e-05
1.73500000e+00	2.61667022e-03	9.17133891e-05
1.74000000e+00	2.59973876e-03	9.13424459e-05
1.74500000e+00	2.59365438e-03	9.21649647e-05
1.75000000e+00	2.59213331e-03	9.03382477e-05
1.75500000e+00	2.60211507e-03	9.12485538e-05
1.76000000e+00	2.56459717e-03	8.99993355e-05
1.76500000e+00	2.55724515e-03	9.08213107e-05
1.77000000e+00	2.54757299e-03	8.90353610e-05
1.77500000e+00	2.54961500e-03	8.93398404e-05
1.78000000e+00	2.54265280e-03	8.93494744e-05
1.78500000e+00	2.52335068e-03	8.96395103e-05
1.79000000e+00	2.53051283e-03	8.83562018e-05
1.79500000e+00	2.50101057e-03	8.75938445e-05
1.80000000e+00	2.51604308e-03	8.86173454e-05
1.80500000e+00	2.48091869e-03	8.79977953e-05
1.81000000e+00	2.51254470e-03	8.77830521e-05
1.81500000e+00	2.48373205e-03	8.68030223e-05
1.82000000e+00	2.47581732e-03	8.71936926e-05
1.82500000e+00	2.48268473e-03	8.79713725e-05
1.83000000e+00	2.46655552e-03	8.62781544e-05
1.83500000e+00	2.44267260e-03	8.55913416e-05
1.84000000e+00	2.44600032e-03	8.61872364e-05
1.84500000e+00	2.44118161e-03	8.65102054e-05
1.85000000e+00	2.45713517e-03	8.59769463e-05
1.85500000e+00	2.44645699e-03	8.57025354e-05
1.86000000e+00	2.44256261e-03	8.61533907e-05
1.86500000e+00	2.42695731e-03	8.57691500e-05
1.87000000e+00	2.42657057e-03	8.49022506e-05
1.87500000e+00	2.39905494e-03	8.41556082e-05
1.88000000e+00	2.39832921e-03	8.44974040e-05
1.88500000e+00	2.38712586e-03	8.46074279e-05
1.89000000e+00	2.39507712e-03	8.37218179e-05
1.89500000e+00	2.38183827e-03	8.37016721e-05
1.90000000e+00	2.37563079e-03	8.37307797e-05
1.90500000e+00	2.36250397e-03	8.32918491e-05
1.91000000e+00	2.36114062e-03	8.27644496e-05
1.91500000e+00	2.35758084e-03	8.27313792e-05
1.92000000e+00	2.33253866e-03	8.22037960e-05
1.92500000e+00	2.32202007e-03	8.20145733e-05
1.93000000e+00	2.35085540e-03	8.22428747e-05
1.93500000e+00	2.33352975e-03	8.18451289e-05
1.94000000e+00	2.31125460e-03	8.17339785e-05
1.94500000e+00	2.30309096e-03	8.12666936e-05
1.95000000e+00	2.31212189e-03	8.08007431e-05
1.95500000e+00	2.30023465e-03	8.07703290e-05
1.96000000e+00	2.29383355e-03	8.09351966e-05
1.96500000e+00	2.28386615e-03	8.06923863e-05
1.97000000e+00	2.26435937e-03	7.90587364e-05
1.97500000e+00	2.26300254e-03	7.95446315e-05
1.98000000e+00	2.26767600e-03	8.00023320e-05
1.98500000e+00	2.24096336e-03	7.92781898e-05
1.99000000e+00	2.25300345e-03	7.86767034e-05
1.99500000e+00	2.24023449e-03	7.86202702e-05
2.00000000e+00	2.22192293e-03	7.85324978e-05
2.00500000e+00	2.23834535e-03	7.91499007e-05
2.01000000e+00	2.23791993e-03	8.68888937e-05
2.01500000e+00	2.16948781e-03	8.95039286e-05
2.02000000e+00	2.18997441e-03	9.62632920e-05
2.02500000e+00	2.16364317e-03	9.89537849e-05
2.03000000e+00	2.16035990e-03	1.04527140e-04
2.03500000e+00	2.13234472e-03	1.07912436e-04
2.04000000e+00	2.13639874e-03	1.12941800e-04
2.04500000e+00	2.10547015e-03	1.17115793e-04
2.05000000e+00	2.09565464e-03	1.22327130e-04
2.05500000e+00	2.12702274e-03	1.21893184e-04
2.06000000e+00	2.12907562e-03	1.06041599e-04
2.06500000e+00	2.11646749e-03	1.00650234e-04
2.07000000e+00	2.11448639e-03	9.51168584e-05
2.07500000e+00	2.10588947e-03	9.26862706e-05
2.08000000e+00	2.10234255e-03	9.23188275e-05
2.08500000e+00	2.11581445e-03	9.20179869e-05
2.09000000e+00	2.10554532e-03	8.89129738e-05
2.09500000e+00	2.09489231e-03	8.75224295e-05
2.10000000e+00	2.09996931e-03	8.72028032e-05
2.10500000e+00	2.10523067e-03	8.71071109e-05
2.11000000e+00	2.06600861e-03	8.24040043e-05
2.11500000e+00	2.06032722e-03	8.13361240e-05
2.12000000e+00	2.05140796e-03	8.05357768e-05
2.12500000e+00	2.02858398e-03	7.94419678e-05
2.13000000e+00	2.01458785e-03	7.56815171e-05
2.13500000e+00	1.99368321e-03	7.39495690e-05
2.14000000e+00	1.98685000e-03	7.30843755e-05
2.14500000e+00	1.98906239e-03	7.33720182e-05
2.15000000e+00	1.95454137e-03	6.96866244e-05
2.15500000e+00	1.95857888e-03	7.00578391e-05
2.16000000e+00	1.94836116e-03	6.92794421e-05
2.16500000e+00	1.94192864e-03	6.95750807e-05
2.17000000e+00	1.91924109e-03	6.70267182e-05
2.17500000e+00	1.94314531e-03	6.80777001e-05
2.18000000e+00	1.93495475e-03	6.80338787e-05
2.18500000e+00	1.90762308e-03	6.73436747e-05
2.19000000e+00	1.90701485e-03	6.71062574e-05
2.19500000e+00	1.90044588e-03	6.65761915e-05
2.20000000e+00	1.88246801e-03	6.60906944e-05
2.20500000e+00	1.84575688e-03	6.50058693e-05
2.21000000e+00	1.85898344e-03	6.58071026e-05
2.21500000e+00	1.83370962e-03	6.42511521e-05
2.22000000e+00	1.82807863e-03	6.39405942e-05
2.22500000e+00	1.82716046e-03	6.44204973e-05
2.23000000e+00	1.81542423e-03	6.43521192e-05
2.23500000e+00	1.81150026e-03	6.34011299e-05
2.24000000e+00	1.78188126e-03	6.24031059e-05
2.24500000e+00	1.81720649e-03	6.39895321e-05
2.25000000e+00	1.76627080e-03	6.28241013e-05
2.25500000e+00	1.76870395e-03	6.17002235e-05
2.26000000e+00	1.75209578e-03	6.13465847e-05
2.26500000e+00	1.73846518e-03	6.10631490e-05
2.27000000e+00	1.72474256e-03	6.14337597e-05
2.27500000e+00	1.71531352e-03	5.98561132e-05
2.28000000e+00	1.69814804e-03	5.93276480e-05
2.28500000e+00	1.68512478e-03	5.92169855e-05
2.29000000e+00	1.68535718e-03	5.96645238e-05
2.29500000e+00	1.67230704e-03	5.90269853e-05
2.30000000e+00	1.65326979e-03	5.76907067e-05
2.30500000e+00	1.65112171e-03	5.78558276e-05
2.31000000e+00	1.66569061e-03	5.86485170e-05
2.31500000e+00	1.62455694e-03	5.76391274e-05
2.32000000e+00	1.61984340e-03	5.63530714e-05
2.32500000e+00	1.60122720e-03	5.61529447e-05
2.33000000e+00	1.58342773e-03	5.56515592e-05
2.33500000e+00	1.57834541e-03	5.60384658e-05
2.34000000e+00	1.58583711e-03	5.53096367e-05
2.34500000e+00	1.55957880e-03	5.44012845e-05
2.35000000e+00	1.57918953e-03	5.53490998e-05
2.35500000e+00	1.56151852e-03	5.54474756e-05
2.36000000e+00	1.54698569e-03	5.41297601e-05
2.36500000e+00	1.51718771e-03	5.30731928e-05
2.37000000e+00	1.52908279e-03	5.35726473e-05
2.37500000e+00	1.50121712e-03	5.30158320e-05
2.38000000e+00	1.49344301e-03	5.30710971e-05
2.38500000e+00	1.50323284e-03	5.26079029e-05
2.39000000e+00	1.49084889e-03	5.23308205e-05
2.39500000e+00	1.46892065e-03	5.17721523e-05
2.40000000e+00	1.45470046e-03	5.20339641e-05
2.40500000e+00	1.47621325e-03	5.17691147e-05
2.41000000e+00	1.46877818e-03	5.17471397e-05
2.41500000e+00	1.44518957e-03	5.08061769e-05
2.42000000e+00	1.42652677e-03	5.08711902e-05
2.42500000e+00	1.42338863e-03	5.06936992e-05
2.43000000e+00	1.40244187e-03	4.94698846e-05
2.43500000e+00	1.40259233e-03	4.96954757e-05
2.44000000e+00	1.39579448e-03	4.94709005e-05
2.44500000e+00	1.39040428e-03	4.99714545e-05
2.45000000e+00	1.38081352e-03	4.87613190e-05
2.45500000e+00	1.36839644e-03	4.84418270e-05
2.46000000e+00	1.35236608e-03	4.80620947e-05
2.46500000e+00	1.36086156e-03	4.90109738e-05
2.47000000e+00	1.34917961e-03	4.81188749e-05
2.47500000e+00	1.33976855e-03	4.74579912e-05
2.48000000e+00	1.32263579e-03	4.72755070e-05
2.48500000e+00	1.31663127e-03	4.70446990e-05
2.49000000e+00	1.30980285e-03	4.74688890e-05
2.49500000e+00	1.31246978e-03	4.66905182e-05
2.50000000e+00	1.30477182e-03	4.64644105e-05
2.50500000e+00	1.30424490e-03	4.67770505e-05
2.51000000e+00	1.28591776e-03	4.63691689e-05
2.51500000e+00	1.26744878e-03	4.58448662e-05
2.52000000e+00	1.28045109e-03	4.57905236e-05
2.52500000e+00	1.27188067e-03	4.58071986e-05
2.53000000e+00	1.25633176e-03	4.55874261e-05
2.53500000e+00	1.24892966e-03	4.58997948e-05
2.54000000e+00	1.22897944e-03	4.44935979e-05
2.54500000e+00	1.23027774e-03	4.46582489e-05
2.55000000e+00	1.22945542e-03	4.48640588e-05
2.55500000e+00	1.22371648e-03	4.50505678e-05
2.56000000e+00	1.21389576e-03	4.49314258e-05
2.56500000e+00	1.22201570e-03	4.47956545e-05
2.57000000e+00	1.21224036e-03	4.46231167e-05
2.57500000e+00	1.18743481e-03	4.37654262e-05
2.58000000e+00	1.18442306e-03	4.44766583e-05
2.58500000e+00	1.17022772e-03	4.35919955e-05
2.59000000e+00	1.17120055e-03	4.34283651e-05
2.59500000e+00	1.16480125e-03	4.33749553e-05
2.60000000e+00	1.15603624e-03	4.33998777e-05
2.60500000e+00	1.17548055e-03	4.51497298e-05
2.61000000e+00	1.15365947e-03	5.04864822e-05
2.61500000e+00	1.14652550e-03	5.53957581e-05
2.62000000e+00	1.13684768e-03	6.04365062e-05
2.62500000e+00	1.13589441e-03	6.53000552e-05
2.63000000e+00	1.14649608e-03	7.28942425e-05
2.63500000e+00	1.16059693e-03	8.16000957e-05
2.64000000e+00	1.13973029e-03	8.86061923e-05
2.64500000e+00	1.14388515e-03	9.49419788e-05
2.65000000e+00	1.11670991e-03	9.84021867e-05
2.65500000e+00	1.10211205e-03	1.03882430e-04
2.66000000e+00	1.11097259e-03	1.12016676e-04
2.66500000e+00	1.05806021e-03	1.20201485e-04
2.67000000e+00	1.07643759e-03	1.33104983e-04
2.67500000e+00	1.06282686e-03	1.52473574e-04
2.68000000e+00	1.05181877e-03	1.76643295e-04
2.68500000e+00	1.09129709e-03	2.40928134e-04
2.69000000e+00	1.19140740e-03	4.33519687e-04
2.69500000e+00	0.00000000e+00	0.00000000e+00
2.70000000e+00	0.00000000e+00	0.00000000e+00
