% Filename : WDL12_00046_00004.h5
% Date & Time : 30-Oct-2025 18:08:38
% X-ray Energy (keV) : 13.30001
% Exposure Time (s) : 0.500
% Photodiode Value : 141607.000
% I0 of Sample : 0
% I0 of Standard : 1
% 
% q(A^-1)   I(q)    I(q)_SE
8.40000000e-01	0.00000000e+00	0.00000000e+00
8.45000000e-01	2.85520856e-03	5.00986409e-04
8.50000000e-01	2.64885526e-03	2.45654095e-04
8.55000000e-01	2.56591659e-03	2.09659365e-04
8.60000000e-01	2.60671250e-03	1.84461601e-04
8.65000000e-01	2.62026842e-03	1.70882741e-04
8.70000000e-01	2.63610349e-03	1.63980606e-04
8.75000000e-01	2.66300848e-03	1.59277605e-04
8.80000000e-01	2.63163091e-03	1.52131392e-04
8.85000000e-01	2.62892113e-03	1.43742271e-04
8.90000000e-01	2.63595670e-03	1.41064786e-04
8.95000000e-01	2.66447811e-03	1.38546959e-04
9.00000000e-01	2.65131288e-03	1.36491796e-04
9.05000000e-01	2.65690283e-03	1.30750010e-04
9.10000000e-01	2.68650981e-03	1.29989797e-04
9.15000000e-01	2.65642677e-03	1.26430012e-04
9.20000000e-01	2.67690648e-03	1.27187495e-04
9.25000000e-01	2.66061239e-03	1.20974663e-04
9.30000000e-01	2.70678815e-03	1.21723040e-04
9.35000000e-01	2.70686437e-03	1.19461686e-04
9.40000000e-01	2.71723958e-03	1.20362323e-04
9.45000000e-01	2.71315378e-03	1.17024456e-04
9.50000000e-01	2.70655828e-03	1.15185209e-04
9.55000000e-01	2.70703635e-03	1.13150841e-04
9.60000000e-01	2.73973806e-03	1.14576440e-04
9.65000000e-01	2.72643340e-03	1.12105689e-04
9.70000000e-01	2.74947855e-03	1.11173341e-04
9.75000000e-01	2.74964313e-03	1.10071820e-04
9.80000000e-01	2.74534577e-03	1.09029323e-04
9.85000000e-01	2.78280568e-03	1.10453287e-04
9.90000000e-01	2.76128536e-03	1.06347119e-04
9.95000000e-01	2.75930051e-03	1.05710812e-04
1.00000000e+00	2.76323084e-03	1.05290303e-04
1.00500000e+00	2.76287118e-03	1.05311376e-04
1.01000000e+00	2.76027068e-03	1.03065384e-04
1.01500000e+00	2.74894531e-03	1.01716397e-04
1.02000000e+00	2.74556178e-03	1.01488860e-04
1.02500000e+00	2.74043026e-03	1.00058164e-04
1.03000000e+00	2.73762640e-03	9.97059048e-05
1.03500000e+00	2.74543645e-03	9.85363111e-05
1.04000000e+00	2.71988128e-03	9.69845322e-05
1.04500000e+00	2.73392623e-03	9.74867712e-05
1.05000000e+00	2.71230254e-03	9.62201195e-05
1.05500000e+00	2.72485181e-03	9.51127714e-05
1.06000000e+00	2.72276442e-03	9.47911327e-05
1.06500000e+00	2.73031586e-03	9.51673126e-05
1.07000000e+00	2.72945605e-03	9.50075897e-05
1.07500000e+00	2.73158339e-03	9.42885106e-05
1.08000000e+00	2.76284058e-03	9.48513221e-05
1.08500000e+00	2.74425260e-03	9.43261940e-05
1.09000000e+00	2.75974117e-03	9.52906033e-05
1.09500000e+00	2.76361801e-03	9.35819867e-05
1.10000000e+00	2.75309495e-03	9.39221942e-05
1.10500000e+00	2.77464183e-03	9.49160366e-05
1.11000000e+00	2.77716535e-03	9.50584713e-05
1.11500000e+00	2.79697708e-03	9.50341361e-05
1.12000000e+00	2.80281037e-03	9.55175666e-05
1.12500000e+00	2.79069415e-03	9.49743737e-05
1.13000000e+00	2.81029785e-03	9.68177128e-05
1.13500000e+00	2.84284941e-03	9.66397591e-05
1.14000000e+00	2.83193198e-03	9.61302509e-05
1.14500000e+00	2.86584472e-03	9.81281194e-05
1.15000000e+00	2.82995981e-03	9.74174334e-05
1.15500000e+00	2.86482191e-03	9.76027346e-05
1.16000000e+00	2.86279132e-03	9.78470978e-05
1.16500000e+00	2.86067801e-03	9.76289301e-05
1.17000000e+00	2.85621086e-03	9.86869358e-05
1.17500000e+00	2.86732875e-03	9.77334544e-05
1.18000000e+00	2.89251214e-03	9.90213199e-05
1.18500000e+00	2.86650265e-03	9.78301629e-05
1.19000000e+00	2.87392172e-03	9.92932385e-05
1.19500000e+00	2.90156107e-03	9.89626256e-05
1.20000000e+00	2.90140411e-03	9.95138758e-05
1.20500000e+00	2.90357447e-03	9.92876377e-05
1.21000000e+00	2.90310109e-03	1.00670802e-04
1.21500000e+00	2.92512616e-03	9.98630100e-05
1.22000000e+00	2.90375471e-03	9.92383316e-05
1.22500000e+00	2.91645981e-03	1.00071042e-04
1.23000000e+00	2.88931220e-03	9.98252181e-05
1.23500000e+00	2.93337378e-03	1.00645321e-04
1.24000000e+00	2.93885432e-03	1.00528987e-04
1.24500000e+00	2.93024111e-03	1.00885948e-04
1.25000000e+00	2.92680948e-03	1.01431363e-04
1.25500000e+00	2.91544772e-03	9.97913932e-05
1.26000000e+00	2.92615175e-03	1.00823362e-04
1.26500000e+00	2.93303201e-03	1.00629237e-04
1.27000000e+00	2.92854133e-03	1.01927188e-04
1.27500000e+00	2.93519894e-03	1.01140469e-04
1.28000000e+00	2.93710667e-03	1.00571311e-04
1.28500000e+00	2.91803299e-03	1.00422014e-04
1.29000000e+00	2.92956014e-03	1.01822445e-04
1.29500000e+00	2.92802981e-03	1.00670972e-04
1.30000000e+00	2.95113710e-03	1.01220458e-04
1.30500000e+00	2.93145884e-03	1.01057794e-04
1.31000000e+00	2.94169050e-03	1.02548573e-04
1.31500000e+00	2.93512579e-03	1.01073508e-04
1.32000000e+00	2.94742368e-03	1.01343144e-04
1.32500000e+00	2.92653667e-03	1.00977386e-04
1.33000000e+00	2.95394123e-03	1.03097217e-04
1.33500000e+00	2.95555279e-03	1.01784706e-04
1.34000000e+00	2.94912288e-03	1.01617022e-04
1.34500000e+00	2.94930066e-03	1.01973600e-04
1.35000000e+00	2.91415439e-03	1.01833651e-04
1.35500000e+00	2.92765427e-03	1.00886037e-04
1.36000000e+00	2.91629963e-03	1.00190716e-04
1.36500000e+00	2.95740660e-03	1.02076400e-04
1.37000000e+00	2.93458099e-03	1.02653560e-04
1.37500000e+00	2.92395375e-03	1.00838721e-04
1.38000000e+00	2.93046307e-03	1.01266352e-04
1.38500000e+00	2.94592103e-03	1.02273367e-04
1.39000000e+00	2.92994174e-03	1.02448514e-04
1.39500000e+00	2.95468699e-03	1.01815064e-04
1.40000000e+00	2.96675733e-03	1.05352382e-04
1.40500000e+00	2.91998297e-03	1.11587751e-04
1.41000000e+00	2.88423298e-03	1.15427219e-04
1.41500000e+00	2.89169080e-03	1.19835641e-04
1.42000000e+00	2.86872400e-03	1.23789759e-04
1.42500000e+00	2.87502647e-03	1.27708752e-04
1.43000000e+00	2.84798762e-03	1.31361163e-04
1.43500000e+00	2.82537205e-03	1.34384748e-04
1.44000000e+00	2.83040598e-03	1.39750952e-04
1.44500000e+00	2.82936584e-03	1.43331123e-04
1.45000000e+00	2.87867376e-03	1.40774052e-04
1.45500000e+00	2.91639224e-03	1.28210370e-04
1.46000000e+00	2.89666932e-03	1.24336923e-04
1.46500000e+00	2.88252003e-03	1.21618519e-04
1.47000000e+00	2.86621225e-03	1.20706707e-04
1.47500000e+00	2.88511366e-03	1.17884711e-04
1.48000000e+00	2.90338310e-03	1.17398311e-04
1.48500000e+00	2.87772861e-03	1.16562991e-04
1.49000000e+00	2.87611818e-03	1.16672472e-04
1.49500000e+00	2.90465752e-03	1.15198682e-04
1.50000000e+00	2.89968156e-03	1.14731050e-04
1.50500000e+00	2.90004936e-03	1.15288860e-04
1.51000000e+00	2.90061288e-03	1.15508647e-04
1.51500000e+00	2.90346622e-03	1.13739412e-04
1.52000000e+00	2.89726098e-03	1.13142643e-04
1.52500000e+00	2.88859840e-03	1.12719777e-04
1.53000000e+00	2.91015796e-03	1.14191497e-04
1.53500000e+00	2.88952376e-03	1.10155173e-04
1.54000000e+00	2.89158231e-03	1.09962319e-04
1.54500000e+00	2.88556402e-03	1.09595553e-04
1.55000000e+00	2.88596163e-03	1.09301654e-04
1.55500000e+00	2.84722666e-03	1.05456748e-04
1.56000000e+00	2.86734321e-03	1.06357215e-04
1.56500000e+00	2.83018746e-03	1.04440935e-04
1.57000000e+00	2.80706553e-03	1.02906337e-04
1.57500000e+00	2.80024264e-03	1.00730857e-04
1.58000000e+00	2.79083349e-03	1.00231133e-04
1.58500000e+00	2.79654682e-03	1.00483226e-04
1.59000000e+00	2.79319037e-03	1.00372653e-04
1.59500000e+00	2.78856420e-03	9.82183601e-05
1.60000000e+00	2.77671687e-03	9.77949483e-05
1.60500000e+00	2.78542098e-03	9.82127446e-05
1.61000000e+00	2.74875462e-03	9.64877168e-05
1.61500000e+00	2.76760119e-03	9.62723274e-05
1.62000000e+00	2.74592069e-03	9.59389676e-05
1.62500000e+00	2.75220146e-03	9.72190129e-05
1.63000000e+00	2.74044226e-03	9.57965172e-05
1.63500000e+00	2.75054570e-03	9.60948833e-05
1.64000000e+00	2.73991386e-03	9.57866400e-05
1.64500000e+00	2.71036563e-03	9.58344470e-05
1.65000000e+00	2.70631638e-03	9.46621759e-05
1.65500000e+00	2.71998255e-03	9.49705446e-05
1.66000000e+00	2.72607252e-03	9.53370359e-05
1.66500000e+00	2.69907010e-03	9.59466149e-05
1.67000000e+00	2.68629131e-03	9.35018384e-05
1.67500000e+00	2.68792579e-03	9.38661086e-05
1.68000000e+00	2.68190233e-03	9.38981254e-05
1.68500000e+00	2.66445474e-03	9.48200452e-05
1.69000000e+00	2.67748740e-03	9.34467564e-05
1.69500000e+00	2.66379660e-03	9.28552815e-05
1.70000000e+00	2.67675698e-03	9.43370795e-05
1.70500000e+00	2.63067740e-03	9.31173026e-05
1.71000000e+00	2.64355527e-03	9.24047121e-05
1.71500000e+00	2.61922627e-03	9.14892175e-05
1.72000000e+00	2.64389372e-03	9.30646902e-05
1.72500000e+00	2.61625746e-03	9.26577550e-05
1.73000000e+00	2.62090572e-03	9.15929089e-05
1.73500000e+00	2.60488590e-03	9.13201893e-05
1.74000000e+00	2.63053722e-03	9.24742704e-05
1.74500000e+00	2.60248036e-03	9.25570799e-05
1.75000000e+00	2.59251590e-03	9.03754779e-05
1.75500000e+00	2.59071121e-03	9.08854020e-05
1.76000000e+00	2.57907248e-03	9.04815774e-05
1.76500000e+00	2.57539643e-03	9.15239641e-05
1.77000000e+00	2.58224352e-03	9.02226817e-05
1.77500000e+00	2.55941475e-03	8.96410077e-05
1.78000000e+00	2.54376315e-03	8.94131524e-05
1.78500000e+00	2.53748092e-03	9.00916980e-05
1.79000000e+00	2.56151964e-03	8.94267071e-05
1.79500000e+00	2.54618239e-03	8.91547215e-05
1.80000000e+00	2.55147541e-03	8.98569842e-05
1.80500000e+00	2.52837046e-03	8.96209153e-05
1.81000000e+00	2.51735060e-03	8.79336611e-05
1.81500000e+00	2.48255546e-03	8.67393848e-05
1.82000000e+00	2.51156004e-03	8.83694835e-05
1.82500000e+00	2.47717219e-03	8.76600328e-05
1.83000000e+00	2.50029205e-03	8.73697641e-05
1.83500000e+00	2.46045947e-03	8.62282845e-05
1.84000000e+00	2.45310290e-03	8.64141228e-05
1.84500000e+00	2.47941633e-03	8.78234588e-05
1.85000000e+00	2.44583744e-03	8.56672155e-05
1.85500000e+00	2.44758861e-03	8.58076680e-05
1.86000000e+00	2.44618386e-03	8.62625980e-05
1.86500000e+00	2.43565851e-03	8.60931238e-05
1.87000000e+00	2.41937864e-03	8.46791017e-05
1.87500000e+00	2.43184253e-03	8.53112785e-05
1.88000000e+00	2.39768008e-03	8.44817397e-05
1.88500000e+00	2.40109139e-03	8.51734197e-05
1.89000000e+00	2.40541827e-03	8.40774824e-05
1.89500000e+00	2.38654766e-03	8.38599430e-05
1.90000000e+00	2.38982388e-03	8.42529394e-05
1.90500000e+00	2.38222617e-03	8.40065795e-05
1.91000000e+00	2.36826668e-03	8.29566779e-05
1.91500000e+00	2.37169429e-03	8.32279258e-05
1.92000000e+00	2.37134642e-03	8.35976189e-05
1.92500000e+00	2.36324034e-03	8.34558273e-05
1.93000000e+00	2.34135759e-03	8.18337074e-05
1.93500000e+00	2.32758763e-03	8.16269170e-05
1.94000000e+00	2.32863381e-03	8.24030767e-05
1.94500000e+00	2.30973509e-03	8.14446290e-05
1.95000000e+00	2.31484838e-03	8.08604144e-05
1.95500000e+00	2.29875608e-03	8.06475297e-05
1.96000000e+00	2.30665558e-03	8.14558154e-05
1.96500000e+00	2.27754198e-03	8.05172733e-05
1.97000000e+00	2.28475783e-03	7.97265887e-05
1.97500000e+00	2.27090812e-03	7.98259082e-05
1.98000000e+00	2.27847423e-03	8.04947014e-05
1.98500000e+00	2.24582221e-03	7.93597587e-05
1.99000000e+00	2.25015703e-03	7.86147584e-05
1.99500000e+00	2.24015809e-03	7.86103233e-05
2.00000000e+00	2.23103339e-03	7.87739484e-05
2.00500000e+00	2.26535824e-03	8.01320573e-05
2.01000000e+00	2.22697842e-03	8.65052131e-05
2.01500000e+00	2.22356929e-03	9.17979820e-05
2.02000000e+00	2.20217212e-03	9.68594520e-05
2.02500000e+00	2.17681441e-03	9.95096891e-05
2.03000000e+00	2.17105334e-03	1.04957973e-04
2.03500000e+00	2.14142733e-03	1.08184636e-04
2.04000000e+00	2.15280045e-03	1.13718606e-04
2.04500000e+00	2.13781243e-03	1.18937662e-04
2.05000000e+00	2.06986210e-03	1.21002027e-04
2.05500000e+00	2.15177842e-03	1.23190917e-04
2.06000000e+00	2.15048071e-03	1.07125856e-04
2.06500000e+00	2.14568984e-03	1.01979662e-04
2.07000000e+00	2.11969619e-03	9.55795515e-05
2.07500000e+00	2.11796298e-03	9.31910009e-05
2.08000000e+00	2.11226458e-03	9.28161313e-05
2.08500000e+00	2.10537204e-03	9.17344972e-05
2.09000000e+00	2.12679674e-03	8.98426134e-05
2.09500000e+00	2.12886118e-03	8.90569483e-05
2.10000000e+00	2.10264194e-03	8.72922795e-05
2.10500000e+00	2.12597784e-03	8.80040830e-05
2.11000000e+00	2.07915100e-03	8.29267088e-05
2.11500000e+00	2.07007823e-03	8.16394840e-05
2.12000000e+00	2.05005524e-03	8.04533058e-05
2.12500000e+00	2.03453581e-03	7.96417651e-05
2.13000000e+00	2.04514211e-03	7.68327669e-05
2.13500000e+00	2.02793739e-03	7.52195875e-05
2.14000000e+00	2.00055563e-03	7.35723561e-05
2.14500000e+00	1.98595344e-03	7.32507759e-05
2.15000000e+00	1.98323318e-03	7.06796911e-05
2.15500000e+00	1.96502062e-03	7.01933869e-05
2.16000000e+00	1.95502013e-03	6.94872581e-05
2.16500000e+00	1.94447456e-03	6.96112291e-05
2.17000000e+00	1.93546172e-03	6.76390564e-05
2.17500000e+00	1.94888192e-03	6.83272363e-05
2.18000000e+00	1.93136011e-03	6.79568530e-05
2.18500000e+00	1.92962341e-03	6.81599464e-05
2.19000000e+00	1.92007970e-03	6.76653324e-05
2.19500000e+00	1.89400307e-03	6.62599006e-05
2.20000000e+00	1.89337391e-03	6.64628252e-05
2.20500000e+00	1.88634978e-03	6.63792122e-05
2.21000000e+00	1.88371775e-03	6.66935025e-05
2.21500000e+00	1.85862660e-03	6.50172802e-05
2.22000000e+00	1.83993842e-03	6.43249875e-05
2.22500000e+00	1.84749751e-03	6.51376365e-05
2.23000000e+00	1.83154199e-03	6.49702272e-05
2.23500000e+00	1.81092979e-03	6.33438999e-05
2.24000000e+00	1.81648079e-03	6.35508073e-05
2.24500000e+00	1.79751233e-03	6.33470524e-05
2.25000000e+00	1.78635967e-03	6.34176568e-05
2.25500000e+00	1.76866586e-03	6.16977905e-05
2.26000000e+00	1.76779403e-03	6.19656540e-05
2.26500000e+00	1.75134109e-03	6.14977243e-05
2.27000000e+00	1.73020519e-03	6.17655181e-05
2.27500000e+00	1.72852422e-03	6.04166117e-05
2.28000000e+00	1.71267421e-03	5.98448555e-05
2.28500000e+00	1.72679762e-03	6.07547250e-05
2.29000000e+00	1.69968028e-03	6.01542123e-05
2.29500000e+00	1.67896325e-03	5.91815619e-05
2.30000000e+00	1.68615205e-03	5.88784648e-05
2.30500000e+00	1.65621738e-03	5.80874552e-05
2.31000000e+00	1.65562466e-03	5.83098937e-05
2.31500000e+00	1.63902680e-03	5.81598766e-05
2.32000000e+00	1.62941073e-03	5.66838298e-05
2.32500000e+00	1.60844313e-03	5.64500910e-05
2.33000000e+00	1.60186646e-03	5.63094229e-05
2.33500000e+00	1.59880348e-03	5.67750824e-05
2.34000000e+00	1.59360195e-03	5.55953581e-05
2.34500000e+00	1.57701098e-03	5.51044029e-05
2.35000000e+00	1.57507984e-03	5.51966401e-05
2.35500000e+00	1.55465507e-03	5.52288561e-05
2.36000000e+00	1.55034818e-03	5.42915485e-05
2.36500000e+00	1.54660604e-03	5.40873213e-05
2.37000000e+00	1.52915121e-03	5.35210963e-05
2.37500000e+00	1.51466988e-03	5.34636771e-05
2.38000000e+00	1.51186664e-03	5.36266744e-05
2.38500000e+00	1.50167905e-03	5.25472117e-05
2.39000000e+00	1.48669114e-03	5.21500493e-05
2.39500000e+00	1.47493684e-03	5.19845939e-05
2.40000000e+00	1.47520456e-03	5.27822417e-05
2.40500000e+00	1.46263767e-03	5.12377977e-05
2.41000000e+00	1.44205314e-03	5.08125039e-05
2.41500000e+00	1.45687413e-03	5.12364850e-05
2.42000000e+00	1.44476856e-03	5.15187613e-05
2.42500000e+00	1.43194931e-03	5.09182842e-05
2.43000000e+00	1.43153672e-03	5.04164354e-05
2.43500000e+00	1.41155936e-03	4.99308165e-05
2.44000000e+00	1.40431246e-03	4.98124322e-05
2.44500000e+00	1.38466302e-03	4.97889460e-05
2.45000000e+00	1.39020044e-03	4.90661770e-05
2.45500000e+00	1.37507900e-03	4.86729902e-05
2.46000000e+00	1.35995034e-03	4.83605036e-05
2.46500000e+00	1.35450095e-03	4.87447601e-05
2.47000000e+00	1.35998180e-03	4.84693739e-05
2.47500000e+00	1.33715906e-03	4.73835423e-05
2.48000000e+00	1.34541640e-03	4.81067284e-05
2.48500000e+00	1.33057849e-03	4.74990301e-05
2.49000000e+00	1.32118911e-03	4.78638911e-05
2.49500000e+00	1.30998628e-03	4.65957013e-05
2.50000000e+00	1.31706329e-03	4.69116127e-05
2.50500000e+00	1.30124225e-03	4.66016994e-05
2.51000000e+00	1.28469919e-03	4.63433967e-05
2.51500000e+00	1.28844034e-03	4.65935158e-05
2.52000000e+00	1.27085667e-03	4.55300220e-05
2.52500000e+00	1.26773871e-03	4.56316348e-05
2.53000000e+00	1.26381341e-03	4.59639214e-05
2.53500000e+00	1.24187535e-03	4.56476574e-05
2.54000000e+00	1.24503483e-03	4.50202338e-05
2.54500000e+00	1.24424128e-03	4.51997516e-05
2.55000000e+00	1.23247359e-03	4.49699572e-05
2.55500000e+00	1.22846202e-03	4.51541322e-05
2.56000000e+00	1.22103866e-03	4.51111694e-05
2.56500000e+00	1.21519798e-03	4.45605558e-05
2.57000000e+00	1.21768623e-03	4.49186814e-05
2.57500000e+00	1.19301032e-03	4.40997277e-05
2.58000000e+00	1.19176944e-03	4.46922562e-05
2.58500000e+00	1.19031686e-03	4.43193662e-05
2.59000000e+00	1.18809378e-03	4.41031330e-05
2.59500000e+00	1.16729696e-03	4.34892274e-05
2.60000000e+00	1.17179202e-03	4.39866979e-05
2.60500000e+00	1.17410923e-03	4.50046744e-05
2.61000000e+00	1.14765712e-03	5.02174583e-05
2.61500000e+00	1.14694695e-03	5.55022748e-05
2.62000000e+00	1.14309244e-03	6.07909413e-05
2.62500000e+00	1.11495863e-03	6.40399214e-05
2.63000000e+00	1.15578192e-03	7.34595216e-05
2.63500000e+00	1.14776724e-03	8.07227582e-05
2.64000000e+00	1.13697568e-03	8.87280911e-05
2.64500000e+00	1.12821839e-03	9.36343944e-05
2.65000000e+00	1.13466711e-03	9.97542418e-05
2.65500000e+00	1.09260902e-03	1.03203669e-04
2.66000000e+00	1.10283418e-03	1.11731120e-04
2.66500000e+00	1.09068252e-03	1.24029471e-04
2.67000000e+00	1.12496055e-03	1.38351287e-04
2.67500000e+00	1.07648957e-03	1.55717555e-04
2.68000000e+00	1.06734396e-03	1.78233779e-04
2.68500000e+00	9.88242806e-04	2.19872328e-04
2.69000000e+00	1.10102814e-03	3.94141189e-04
2.69500000e+00	0.00000000e+00	0.00000000e+00
2.70000000e+00	0.00000000e+00	0.00000000e+00
