% Filename : WDL13_00034_00036.h5
% Date & Time : 30-Oct-2025 17:30:07
% X-ray Energy (keV) : 13.30001
% Exposure Time (s) : 0.500
% Photodiode Value : 140971.000
% I0 of Sample : 0
% I0 of Standard : 1
% 
% q(A^-1)   I(q)    I(q)_SE
8.40000000e-01	0.00000000e+00	0.00000000e+00
8.45000000e-01	2.81244444e-03	4.93305623e-04
8.50000000e-01	2.68380355e-03	2.49049227e-04
8.55000000e-01	2.69040882e-03	2.19830123e-04
8.60000000e-01	2.64544193e-03	1.87178744e-04
8.65000000e-01	2.65247405e-03	1.73076589e-04
8.70000000e-01	2.67607494e-03	1.66189623e-04
8.75000000e-01	2.67303441e-03	1.60009733e-04
8.80000000e-01	2.69404011e-03	1.55731583e-04
8.85000000e-01	2.68832863e-03	1.46739243e-04
8.90000000e-01	2.69548391e-03	1.44195295e-04
8.95000000e-01	2.68951612e-03	1.39871111e-04
9.00000000e-01	2.70898187e-03	1.39602335e-04
9.05000000e-01	2.71164682e-03	1.33484949e-04
9.10000000e-01	2.72484322e-03	1.31642146e-04
9.15000000e-01	2.71215559e-03	1.29083635e-04
9.20000000e-01	2.74099835e-03	1.30232970e-04
9.25000000e-01	2.75158825e-03	1.25073855e-04
9.30000000e-01	2.75913836e-03	1.24213915e-04
9.35000000e-01	2.73359463e-03	1.20766515e-04
9.40000000e-01	2.78030746e-03	1.23141031e-04
9.45000000e-01	2.78012618e-03	1.19829256e-04
9.50000000e-01	2.80023277e-03	1.19160583e-04
9.55000000e-01	2.78452656e-03	1.16261740e-04
9.60000000e-01	2.76094643e-03	1.15416610e-04
9.65000000e-01	2.78279231e-03	1.14388481e-04
9.70000000e-01	2.80174424e-03	1.13356959e-04
9.75000000e-01	2.78320980e-03	1.11381913e-04
9.80000000e-01	2.80724943e-03	1.11279355e-04
9.85000000e-01	2.80637397e-03	1.11378382e-04
9.90000000e-01	2.83301260e-03	1.09098289e-04
9.95000000e-01	2.80736888e-03	1.07557404e-04
1.00000000e+00	2.80727373e-03	1.07007294e-04
1.00500000e+00	2.79562686e-03	1.06645689e-04
1.01000000e+00	2.81649838e-03	1.05076487e-04
1.01500000e+00	2.82674618e-03	1.04500426e-04
1.02000000e+00	2.80148793e-03	1.03582685e-04
1.02500000e+00	2.78340218e-03	1.01550537e-04
1.03000000e+00	2.81462564e-03	1.02314578e-04
1.03500000e+00	2.80882971e-03	1.00701439e-04
1.04000000e+00	2.79098273e-03	9.95099488e-05
1.04500000e+00	2.77033801e-03	9.88288167e-05
1.05000000e+00	2.77086201e-03	9.82908174e-05
1.05500000e+00	2.79349459e-03	9.74809561e-05
1.06000000e+00	2.77485023e-03	9.65547276e-05
1.06500000e+00	2.79894604e-03	9.74492085e-05
1.07000000e+00	2.80481153e-03	9.75624980e-05
1.07500000e+00	2.79856122e-03	9.65631312e-05
1.08000000e+00	2.81548687e-03	9.65435757e-05
1.08500000e+00	2.81438626e-03	9.67060562e-05
1.09000000e+00	2.81447804e-03	9.71943019e-05
1.09500000e+00	2.83066197e-03	9.59078206e-05
1.10000000e+00	2.83457862e-03	9.66254659e-05
1.10500000e+00	2.84194780e-03	9.71255436e-05
1.11000000e+00	2.84195905e-03	9.72336333e-05
1.11500000e+00	2.83883013e-03	9.64740084e-05
1.12000000e+00	2.87024776e-03	9.79638989e-05
1.12500000e+00	2.87614788e-03	9.79099425e-05
1.13000000e+00	2.86042432e-03	9.84935570e-05
1.13500000e+00	2.88368665e-03	9.80895986e-05
1.14000000e+00	2.90081931e-03	9.84402043e-05
1.14500000e+00	2.90616383e-03	9.94831016e-05
1.15000000e+00	2.90310207e-03	9.99263440e-05
1.15500000e+00	2.91766540e-03	9.92964107e-05
1.16000000e+00	2.92690049e-03	9.98584177e-05
1.16500000e+00	2.92521354e-03	9.97278779e-05
1.17000000e+00	2.92976877e-03	1.01244657e-04
1.17500000e+00	2.92099048e-03	9.94689469e-05
1.18000000e+00	2.92600609e-03	1.00003034e-04
1.18500000e+00	2.93168213e-03	1.00117135e-04
1.19000000e+00	2.96297350e-03	1.02335069e-04
1.19500000e+00	2.96718935e-03	1.01132490e-04
1.20000000e+00	2.97274335e-03	1.01934498e-04
1.20500000e+00	2.97476575e-03	1.01805226e-04
1.21000000e+00	2.96878035e-03	1.02920466e-04
1.21500000e+00	2.98279370e-03	1.01798503e-04
1.22000000e+00	2.99857948e-03	1.02459065e-04
1.22500000e+00	2.99224535e-03	1.02634176e-04
1.23000000e+00	2.99372851e-03	1.03434806e-04
1.23500000e+00	2.97968982e-03	1.02315721e-04
1.24000000e+00	2.98379391e-03	1.01975149e-04
1.24500000e+00	2.99239213e-03	1.02955709e-04
1.25000000e+00	2.98818203e-03	1.03460622e-04
1.25500000e+00	2.99553705e-03	1.02435940e-04
1.26000000e+00	3.04073889e-03	1.04572375e-04
1.26500000e+00	3.02402297e-03	1.03662286e-04
1.27000000e+00	3.01840863e-03	1.05041049e-04
1.27500000e+00	3.02160063e-03	1.04043140e-04
1.28000000e+00	3.01819856e-03	1.03222048e-04
1.28500000e+00	3.01639729e-03	1.03757111e-04
1.29000000e+00	3.01512385e-03	1.04709447e-04
1.29500000e+00	3.01118432e-03	1.03416541e-04
1.30000000e+00	3.01093629e-03	1.03254750e-04
1.30500000e+00	3.01120212e-03	1.03810975e-04
1.31000000e+00	3.03099909e-03	1.05712031e-04
1.31500000e+00	3.02278011e-03	1.04020805e-04
1.32000000e+00	3.02801535e-03	1.04087613e-04
1.32500000e+00	3.03659842e-03	1.04749919e-04
1.33000000e+00	3.02722880e-03	1.05669334e-04
1.33500000e+00	3.03845817e-03	1.04576477e-04
1.34000000e+00	3.03672510e-03	1.04590719e-04
1.34500000e+00	3.05043878e-03	1.05416721e-04
1.35000000e+00	3.02917217e-03	1.05744741e-04
1.35500000e+00	3.01973117e-03	1.03960015e-04
1.36000000e+00	3.02575129e-03	1.03940419e-04
1.36500000e+00	3.04173745e-03	1.04901478e-04
1.37000000e+00	3.03641209e-03	1.06243337e-04
1.37500000e+00	3.01214966e-03	1.03806684e-04
1.38000000e+00	3.00106869e-03	1.03681509e-04
1.38500000e+00	3.02632809e-03	1.05027752e-04
1.39000000e+00	3.04350710e-03	1.06361060e-04
1.39500000e+00	3.02914898e-03	1.04378031e-04
1.40000000e+00	3.05158037e-03	1.08225429e-04
1.40500000e+00	3.00894576e-03	1.14936766e-04
1.41000000e+00	2.99486119e-03	1.19749683e-04
1.41500000e+00	2.99987808e-03	1.24341045e-04
1.42000000e+00	2.95896755e-03	1.27544661e-04
1.42500000e+00	2.95894780e-03	1.31257752e-04
1.43000000e+00	2.93664707e-03	1.35168015e-04
1.43500000e+00	2.91785184e-03	1.38550166e-04
1.44000000e+00	2.90855567e-03	1.43415832e-04
1.44500000e+00	2.92071998e-03	1.47884428e-04
1.45000000e+00	2.98365767e-03	1.46275925e-04
1.45500000e+00	2.98725599e-03	1.31405076e-04
1.46000000e+00	3.00230208e-03	1.28767920e-04
1.46500000e+00	2.99024961e-03	1.25970219e-04
1.47000000e+00	2.97058713e-03	1.24941768e-04
1.47500000e+00	2.99519589e-03	1.22290842e-04
1.48000000e+00	2.95448497e-03	1.19451896e-04
1.48500000e+00	2.99014831e-03	1.20983721e-04
1.49000000e+00	2.98672071e-03	1.21118045e-04
1.49500000e+00	2.98901158e-03	1.18514834e-04
1.50000000e+00	2.98516877e-03	1.18015619e-04
1.50500000e+00	2.98962211e-03	1.18762985e-04
1.51000000e+00	2.99194208e-03	1.19126622e-04
1.51500000e+00	3.01701127e-03	1.18121425e-04
1.52000000e+00	3.02844996e-03	1.18289741e-04
1.52500000e+00	3.00421067e-03	1.17106522e-04
1.53000000e+00	3.01712126e-03	1.18268854e-04
1.53500000e+00	3.01070718e-03	1.14737335e-04
1.54000000e+00	3.00995131e-03	1.14540319e-04
1.54500000e+00	2.98174931e-03	1.13237833e-04
1.55000000e+00	2.98020707e-03	1.12811437e-04
1.55500000e+00	2.96957876e-03	1.09900560e-04
1.56000000e+00	2.93479657e-03	1.08914849e-04
1.56500000e+00	2.92452899e-03	1.07988267e-04
1.57000000e+00	2.93019493e-03	1.07329939e-04
1.57500000e+00	2.92040869e-03	1.05034001e-04
1.58000000e+00	2.89727270e-03	1.04046498e-04
1.58500000e+00	2.88627200e-03	1.03602675e-04
1.59000000e+00	2.87355345e-03	1.03230917e-04
1.59500000e+00	2.87997547e-03	1.01519036e-04
1.60000000e+00	2.87606586e-03	1.01284966e-04
1.60500000e+00	2.87959889e-03	1.01499633e-04
1.61000000e+00	2.85503826e-03	1.00161765e-04
1.61500000e+00	2.87597391e-03	1.00110982e-04
1.62000000e+00	2.83922573e-03	9.91350072e-05
1.62500000e+00	2.83687755e-03	1.00191909e-04
1.63000000e+00	2.81458539e-03	9.83944171e-05
1.63500000e+00	2.82866245e-03	9.88224661e-05
1.64000000e+00	2.83274243e-03	9.90388212e-05
1.64500000e+00	2.81330216e-03	9.94627486e-05
1.65000000e+00	2.79844550e-03	9.78568039e-05
1.65500000e+00	2.78327114e-03	9.72332761e-05
1.66000000e+00	2.79182194e-03	9.75857175e-05
1.66500000e+00	2.77756030e-03	9.86581891e-05
1.67000000e+00	2.77507993e-03	9.66896205e-05
1.67500000e+00	2.78996469e-03	9.73526634e-05
1.68000000e+00	2.77407728e-03	9.70874615e-05
1.68500000e+00	2.77743295e-03	9.87923494e-05
1.69000000e+00	2.74459795e-03	9.57502172e-05
1.69500000e+00	2.76307106e-03	9.62304285e-05
1.70000000e+00	2.75052167e-03	9.69262479e-05
1.70500000e+00	2.73016107e-03	9.66295790e-05
1.71000000e+00	2.73231894e-03	9.54544598e-05
1.71500000e+00	2.74879708e-03	9.60072754e-05
1.72000000e+00	2.72994565e-03	9.60829611e-05
1.72500000e+00	2.71899443e-03	9.63112391e-05
1.73000000e+00	2.69281477e-03	9.40696754e-05
1.73500000e+00	2.68672111e-03	9.41406928e-05
1.74000000e+00	2.69854460e-03	9.48109426e-05
1.74500000e+00	2.66969274e-03	9.49076522e-05
1.75000000e+00	2.70288008e-03	9.41654840e-05
1.75500000e+00	2.67427939e-03	9.37837431e-05
1.76000000e+00	2.67395069e-03	9.38242784e-05
1.76500000e+00	2.63386661e-03	9.35562754e-05
1.77000000e+00	2.63810070e-03	9.20859248e-05
1.77500000e+00	2.65570452e-03	9.30128786e-05
1.78000000e+00	2.63706959e-03	9.26374279e-05
1.78500000e+00	2.63083091e-03	9.33627962e-05
1.79000000e+00	2.61697253e-03	9.13424243e-05
1.79500000e+00	2.60320753e-03	9.12372222e-05
1.80000000e+00	2.59688906e-03	9.14976465e-05
1.80500000e+00	2.59936946e-03	9.21342717e-05
1.81000000e+00	2.59882065e-03	9.07906003e-05
1.81500000e+00	2.58932340e-03	9.04421690e-05
1.82000000e+00	2.56823517e-03	9.03626508e-05
1.82500000e+00	2.59569580e-03	9.18991794e-05
1.83000000e+00	2.57691840e-03	9.00618042e-05
1.83500000e+00	2.54948256e-03	8.92604361e-05
1.84000000e+00	2.55858653e-03	9.01047468e-05
1.84500000e+00	2.57288841e-03	9.10463537e-05
1.85000000e+00	2.54495616e-03	8.90334094e-05
1.85500000e+00	2.52920458e-03	8.85916331e-05
1.86000000e+00	2.49744123e-03	8.80888712e-05
1.86500000e+00	2.52450258e-03	8.91990492e-05
1.87000000e+00	2.50506836e-03	8.76246862e-05
1.87500000e+00	2.50855659e-03	8.79687669e-05
1.88000000e+00	2.48707780e-03	8.75903864e-05
1.88500000e+00	2.50164268e-03	8.86760845e-05
1.89000000e+00	2.48220278e-03	8.67723445e-05
1.89500000e+00	2.47525214e-03	8.70218584e-05
1.90000000e+00	2.46516843e-03	8.68640360e-05
1.90500000e+00	2.46540322e-03	8.69698101e-05
1.91000000e+00	2.45128405e-03	8.58483301e-05
1.91500000e+00	2.43163760e-03	8.52363262e-05
1.92000000e+00	2.43838614e-03	8.59978347e-05
1.92500000e+00	2.42995867e-03	8.57728041e-05
1.93000000e+00	2.41657756e-03	8.44868862e-05
1.93500000e+00	2.42073070e-03	8.49299225e-05
1.94000000e+00	2.40859168e-03	8.51498375e-05
1.94500000e+00	2.40056238e-03	8.45815767e-05
1.95000000e+00	2.37714328e-03	8.30360457e-05
1.95500000e+00	2.39993185e-03	8.42068399e-05
1.96000000e+00	2.37810854e-03	8.39356996e-05
1.96500000e+00	2.36346656e-03	8.35065643e-05
1.97000000e+00	2.35903787e-03	8.22827347e-05
1.97500000e+00	2.35442414e-03	8.27329218e-05
1.98000000e+00	2.32388391e-03	8.19701831e-05
1.98500000e+00	2.35604394e-03	8.32505084e-05
1.99000000e+00	2.32574398e-03	8.11272583e-05
1.99500000e+00	2.31169720e-03	8.11418506e-05
2.00000000e+00	2.29890670e-03	8.12470942e-05
2.00500000e+00	2.34830605e-03	8.31346274e-05
2.01000000e+00	2.30527766e-03	8.93991731e-05
2.01500000e+00	2.29636099e-03	9.47500946e-05
2.02000000e+00	2.24710929e-03	9.87345600e-05
2.02500000e+00	2.25761853e-03	1.03160892e-04
2.03000000e+00	2.23007759e-03	1.07993525e-04
2.03500000e+00	2.19573318e-03	1.10879570e-04
2.04000000e+00	2.22430619e-03	1.17525491e-04
2.04500000e+00	2.21244832e-03	1.22716825e-04
2.05000000e+00	2.17687592e-03	1.27166297e-04
2.05500000e+00	2.20065697e-03	1.25764627e-04
2.06000000e+00	2.22476688e-03	1.10871866e-04
2.06500000e+00	2.22857347e-03	1.05832497e-04
2.07000000e+00	2.20525995e-03	9.91655057e-05
2.07500000e+00	2.20661375e-03	9.71340808e-05
2.08000000e+00	2.18569164e-03	9.59991421e-05
2.08500000e+00	2.16394016e-03	9.41983342e-05
2.09000000e+00	2.17407191e-03	9.18057254e-05
2.09500000e+00	2.18670344e-03	9.13197763e-05
2.10000000e+00	2.17828986e-03	9.04129465e-05
2.10500000e+00	2.17136304e-03	8.98101055e-05
2.11000000e+00	2.15335335e-03	8.58290974e-05
2.11500000e+00	2.14857667e-03	8.47715075e-05
2.12000000e+00	2.13841974e-03	8.39124590e-05
2.12500000e+00	2.11838280e-03	8.28284660e-05
2.13000000e+00	2.10007761e-03	7.89295706e-05
2.13500000e+00	2.09181835e-03	7.76108010e-05
2.14000000e+00	2.05088176e-03	7.54056505e-05
2.14500000e+00	2.05572592e-03	7.58089274e-05
2.15000000e+00	2.05174225e-03	7.31065982e-05
2.15500000e+00	2.01334728e-03	7.19191647e-05
2.16000000e+00	2.02398696e-03	7.19941806e-05
2.16500000e+00	2.04516335e-03	7.31820381e-05
2.17000000e+00	2.00182799e-03	6.98824958e-05
2.17500000e+00	2.01086536e-03	7.04512162e-05
2.18000000e+00	1.98925589e-03	6.98116318e-05
2.18500000e+00	1.97010820e-03	6.95060082e-05
2.19000000e+00	1.94971338e-03	6.86409317e-05
2.19500000e+00	1.96635571e-03	6.88443342e-05
2.20000000e+00	1.94125959e-03	6.81775179e-05
2.20500000e+00	1.94799562e-03	6.85298064e-05
2.21000000e+00	1.92392497e-03	6.80671658e-05
2.21500000e+00	1.92557966e-03	6.74325319e-05
2.22000000e+00	1.91824336e-03	6.71272499e-05
2.22500000e+00	1.89282714e-03	6.66892906e-05
2.23000000e+00	1.87146475e-03	6.64214247e-05
2.23500000e+00	1.89013652e-03	6.59914567e-05
2.24000000e+00	1.87499441e-03	6.55975609e-05
2.24500000e+00	1.85129990e-03	6.52177045e-05
2.25000000e+00	1.83917205e-03	6.52844261e-05
2.25500000e+00	1.83055925e-03	6.39064978e-05
2.26000000e+00	1.81782005e-03	6.36149074e-05
2.26500000e+00	1.82080994e-03	6.39429816e-05
2.27000000e+00	1.80150308e-03	6.42508741e-05
2.27500000e+00	1.79032162e-03	6.24614490e-05
2.28000000e+00	1.75559493e-03	6.13011523e-05
2.28500000e+00	1.76929616e-03	6.21574525e-05
2.29000000e+00	1.75978773e-03	6.22280732e-05
2.29500000e+00	1.73780503e-03	6.12862221e-05
2.30000000e+00	1.71966986e-03	6.00694439e-05
2.30500000e+00	1.70743692e-03	5.98057595e-05
2.31000000e+00	1.72602128e-03	6.07876944e-05
2.31500000e+00	1.69749727e-03	6.01960894e-05
2.32000000e+00	1.68525165e-03	5.86533996e-05
2.32500000e+00	1.67046853e-03	5.86423080e-05
2.33000000e+00	1.65152542e-03	5.80379723e-05
2.33500000e+00	1.65688862e-03	5.87955379e-05
2.34000000e+00	1.66393428e-03	5.80919053e-05
2.34500000e+00	1.65050968e-03	5.76077366e-05
2.35000000e+00	1.61455598e-03	5.65882408e-05
2.35500000e+00	1.60539091e-03	5.70171277e-05
2.36000000e+00	1.61059542e-03	5.63882084e-05
2.36500000e+00	1.60885176e-03	5.62531126e-05
2.37000000e+00	1.58937002e-03	5.56481419e-05
2.37500000e+00	1.57811006e-03	5.56751613e-05
2.38000000e+00	1.56567758e-03	5.56165112e-05
2.38500000e+00	1.54558726e-03	5.40322992e-05
2.39000000e+00	1.55483033e-03	5.45340987e-05
2.39500000e+00	1.54128470e-03	5.43054746e-05
2.40000000e+00	1.52804732e-03	5.47071193e-05
2.40500000e+00	1.53488248e-03	5.37828665e-05
2.41000000e+00	1.50516513e-03	5.29461778e-05
2.41500000e+00	1.50530181e-03	5.29340115e-05
2.42000000e+00	1.50801792e-03	5.37458774e-05
2.42500000e+00	1.49399556e-03	5.30786492e-05
2.43000000e+00	1.47641912e-03	5.20002403e-05
2.43500000e+00	1.46032433e-03	5.17199804e-05
2.44000000e+00	1.46899082e-03	5.21200575e-05
2.44500000e+00	1.43105971e-03	5.13749350e-05
2.45000000e+00	1.44148756e-03	5.08637891e-05
2.45500000e+00	1.42681337e-03	5.05440064e-05
2.46000000e+00	1.41149020e-03	5.01470783e-05
2.46500000e+00	1.40480518e-03	5.05422512e-05
2.47000000e+00	1.41507201e-03	5.04125906e-05
2.47500000e+00	1.38310296e-03	4.89827175e-05
2.48000000e+00	1.38471721e-03	4.94014091e-05
2.48500000e+00	1.38084696e-03	4.93419060e-05
2.49000000e+00	1.38600424e-03	5.01217730e-05
2.49500000e+00	1.36798330e-03	4.86083506e-05
2.50000000e+00	1.36157259e-03	4.85243612e-05
2.50500000e+00	1.34621557e-03	4.81745232e-05
2.51000000e+00	1.34201471e-03	4.84187314e-05
2.51500000e+00	1.33009012e-03	4.80957697e-05
2.52000000e+00	1.33327641e-03	4.77011154e-05
2.52500000e+00	1.31380988e-03	4.72564098e-05
2.53000000e+00	1.31634329e-03	4.78119356e-05
2.53500000e+00	1.30480223e-03	4.79688050e-05
2.54000000e+00	1.29832023e-03	4.69431015e-05
2.54500000e+00	1.29571225e-03	4.70390192e-05
2.55000000e+00	1.27665004e-03	4.65306501e-05
2.55500000e+00	1.28302232e-03	4.71844982e-05
2.56000000e+00	1.27234245e-03	4.70931883e-05
2.56500000e+00	1.27228986e-03	4.65538540e-05
2.57000000e+00	1.25642044e-03	4.62886217e-05
2.57500000e+00	1.24117979e-03	4.58800605e-05
2.58000000e+00	1.23507078e-03	4.63096194e-05
2.58500000e+00	1.22694924e-03	4.56540419e-05
2.59000000e+00	1.22358061e-03	4.53953730e-05
2.59500000e+00	1.21281557e-03	4.51347010e-05
2.60000000e+00	1.22168841e-03	4.58858258e-05
2.60500000e+00	1.23493501e-03	4.73886401e-05
2.61000000e+00	1.20642356e-03	5.26776860e-05
2.61500000e+00	1.21899205e-03	5.88771960e-05
2.62000000e+00	1.17434804e-03	6.25718357e-05
2.62500000e+00	1.18666960e-03	6.83052192e-05
2.63000000e+00	1.17330074e-03	7.44582134e-05
2.63500000e+00	1.18711528e-03	8.35032624e-05
2.64000000e+00	1.18642211e-03	9.20535492e-05
2.64500000e+00	1.20388220e-03	1.00276116e-04
2.65000000e+00	1.20021747e-03	1.05501864e-04
2.65500000e+00	1.18038037e-03	1.11318727e-04
2.66000000e+00	1.16943107e-03	1.18207576e-04
2.66500000e+00	1.11755552e-03	1.27593340e-04
2.67000000e+00	1.08894090e-03	1.33633264e-04
2.67500000e+00	1.12135200e-03	1.61862750e-04
2.68000000e+00	1.13700234e-03	1.90639454e-04
2.68500000e+00	1.08602452e-03	2.43926090e-04
2.69000000e+00	1.17608924e-03	4.23390659e-04
2.69500000e+00	0.00000000e+00	0.00000000e+00
2.70000000e+00	0.00000000e+00	0.00000000e+00
