% Filename : WDL1_00022_00034.h5
% Date & Time : 30-Oct-2025 16:49:51
% X-ray Energy (keV) : 13.30001
% Exposure Time (s) : 0.500
% Photodiode Value : 141350.000
% I0 of Sample : 0
% I0 of Standard : 1
% 
% q(A^-1)   I(q)    I(q)_SE
8.40000000e-01	0.00000000e+00	0.00000000e+00
8.45000000e-01	2.78318980e-03	4.87579625e-04
8.50000000e-01	2.68774747e-03	2.49513872e-04
8.55000000e-01	2.66903958e-03	2.18246638e-04
8.60000000e-01	2.61733188e-03	1.85271862e-04
8.65000000e-01	2.60206524e-03	1.69662991e-04
8.70000000e-01	2.57280004e-03	1.59845278e-04
8.75000000e-01	2.64177835e-03	1.58056851e-04
8.80000000e-01	2.63213886e-03	1.52138985e-04
8.85000000e-01	2.64403747e-03	1.44426108e-04
8.90000000e-01	2.62386266e-03	1.40314505e-04
8.95000000e-01	2.63427797e-03	1.36859899e-04
9.00000000e-01	2.69439922e-03	1.38607535e-04
9.05000000e-01	2.65043428e-03	1.30493438e-04
9.10000000e-01	2.67177364e-03	1.29156625e-04
9.15000000e-01	2.67216581e-03	1.27086668e-04
9.20000000e-01	2.69365351e-03	1.28108726e-04
9.25000000e-01	2.70855363e-03	1.23050709e-04
9.30000000e-01	2.72426373e-03	1.22505666e-04
9.35000000e-01	2.70794390e-03	1.19524846e-04
9.40000000e-01	2.69676632e-03	1.19437821e-04
9.45000000e-01	2.71510685e-03	1.17240565e-04
9.50000000e-01	2.71669557e-03	1.15539452e-04
9.55000000e-01	2.71384690e-03	1.13443247e-04
9.60000000e-01	2.75634915e-03	1.15251595e-04
9.65000000e-01	2.74339879e-03	1.12880400e-04
9.70000000e-01	2.73200834e-03	1.10465459e-04
9.75000000e-01	2.73926377e-03	1.09615932e-04
9.80000000e-01	2.75461378e-03	1.09166528e-04
9.85000000e-01	2.74653005e-03	1.09096453e-04
9.90000000e-01	2.74878976e-03	1.05814256e-04
9.95000000e-01	2.74356813e-03	1.05150228e-04
1.00000000e+00	2.77058347e-03	1.05602445e-04
1.00500000e+00	2.75427015e-03	1.05107346e-04
1.01000000e+00	2.74077372e-03	1.02363869e-04
1.01500000e+00	2.73929965e-03	1.01249027e-04
1.02000000e+00	2.77662095e-03	1.02660717e-04
1.02500000e+00	2.74446623e-03	1.00176226e-04
1.03000000e+00	2.74859407e-03	1.00038531e-04
1.03500000e+00	2.75218955e-03	9.87014236e-05
1.04000000e+00	2.73160761e-03	9.74096234e-05
1.04500000e+00	2.72506854e-03	9.72856791e-05
1.05000000e+00	2.73321427e-03	9.69671227e-05
1.05500000e+00	2.72011013e-03	9.50681139e-05
1.06000000e+00	2.72729981e-03	9.49696134e-05
1.06500000e+00	2.71552737e-03	9.46538888e-05
1.07000000e+00	2.73291645e-03	9.50788270e-05
1.07500000e+00	2.75481783e-03	9.52130245e-05
1.08000000e+00	2.76437087e-03	9.49235632e-05
1.08500000e+00	2.75212487e-03	9.46277570e-05
1.09000000e+00	2.74293901e-03	9.47790722e-05
1.09500000e+00	2.73915413e-03	9.28964005e-05
1.10000000e+00	2.76694313e-03	9.43948366e-05
1.10500000e+00	2.78491038e-03	9.53034109e-05
1.11000000e+00	2.77172942e-03	9.49744457e-05
1.11500000e+00	2.79904166e-03	9.51353667e-05
1.12000000e+00	2.80509942e-03	9.57119631e-05
1.12500000e+00	2.78688571e-03	9.48582815e-05
1.13000000e+00	2.78927494e-03	9.61210949e-05
1.13500000e+00	2.81651213e-03	9.57691166e-05
1.14000000e+00	2.82856254e-03	9.61189422e-05
1.14500000e+00	2.82687934e-03	9.68007116e-05
1.15000000e+00	2.82793903e-03	9.72612520e-05
1.15500000e+00	2.85578242e-03	9.71891879e-05
1.16000000e+00	2.86088368e-03	9.77924308e-05
1.16500000e+00	2.85846124e-03	9.75178299e-05
1.17000000e+00	2.86541200e-03	9.89309614e-05
1.17500000e+00	2.87313623e-03	9.78728089e-05
1.18000000e+00	2.87562191e-03	9.82506517e-05
1.18500000e+00	2.89004857e-03	9.88176354e-05
1.19000000e+00	2.88694086e-03	9.97325571e-05
1.19500000e+00	2.89569900e-03	9.87393244e-05
1.20000000e+00	2.90922697e-03	9.99356550e-05
1.20500000e+00	2.90959946e-03	9.96578151e-05
1.21000000e+00	2.89497482e-03	1.00480181e-04
1.21500000e+00	2.91301529e-03	9.94397573e-05
1.22000000e+00	2.89350759e-03	9.88675331e-05
1.22500000e+00	2.91262939e-03	9.99061223e-05
1.23000000e+00	2.92791166e-03	1.01200731e-04
1.23500000e+00	2.91202451e-03	9.99466842e-05
1.24000000e+00	2.93307913e-03	1.00253895e-04
1.24500000e+00	2.92085290e-03	1.00534413e-04
1.25000000e+00	2.91057581e-03	1.00849557e-04
1.25500000e+00	2.94534613e-03	1.00803548e-04
1.26000000e+00	2.93816953e-03	1.01155386e-04
1.26500000e+00	2.92167077e-03	1.00196386e-04
1.27000000e+00	2.93369373e-03	1.02033591e-04
1.27500000e+00	2.97727606e-03	1.02460190e-04
1.28000000e+00	2.95262982e-03	1.01107419e-04
1.28500000e+00	2.93211053e-03	1.00980421e-04
1.29000000e+00	2.95419060e-03	1.02565766e-04
1.29500000e+00	2.91972962e-03	1.00401459e-04
1.30000000e+00	2.94681759e-03	1.01093667e-04
1.30500000e+00	2.95735455e-03	1.01944210e-04
1.31000000e+00	2.93481705e-03	1.02308669e-04
1.31500000e+00	2.96350838e-03	1.02058994e-04
1.32000000e+00	2.95339611e-03	1.01534716e-04
1.32500000e+00	2.93799962e-03	1.01444149e-04
1.33000000e+00	2.94343972e-03	1.02742532e-04
1.33500000e+00	2.94032882e-03	1.01236417e-04
1.34000000e+00	2.96450935e-03	1.02180758e-04
1.34500000e+00	2.95432134e-03	1.02248684e-04
1.35000000e+00	2.92691677e-03	1.02209044e-04
1.35500000e+00	2.94174755e-03	1.01360886e-04
1.36000000e+00	2.94495198e-03	1.01263910e-04
1.36500000e+00	2.93784879e-03	1.01360595e-04
1.37000000e+00	2.93007436e-03	1.02506217e-04
1.37500000e+00	2.93946284e-03	1.01368053e-04
1.38000000e+00	2.93140885e-03	1.01297954e-04
1.38500000e+00	2.94242432e-03	1.02162712e-04
1.39000000e+00	2.93671970e-03	1.02801917e-04
1.39500000e+00	2.94565920e-03	1.01583604e-04
1.40000000e+00	2.94280721e-03	1.04559687e-04
1.40500000e+00	2.93855292e-03	1.12362799e-04
1.41000000e+00	2.90918440e-03	1.16338356e-04
1.41500000e+00	2.90029055e-03	1.20222414e-04
1.42000000e+00	2.88098092e-03	1.24256415e-04
1.42500000e+00	2.86239113e-03	1.27145689e-04
1.43000000e+00	2.85151988e-03	1.31488189e-04
1.43500000e+00	2.79192633e-03	1.32914749e-04
1.44000000e+00	2.83996770e-03	1.40155671e-04
1.44500000e+00	2.81319388e-03	1.42408943e-04
1.45000000e+00	2.91645474e-03	1.42864378e-04
1.45500000e+00	2.91252221e-03	1.28149292e-04
1.46000000e+00	2.87976442e-03	1.23612201e-04
1.46500000e+00	2.90128408e-03	1.22422331e-04
1.47000000e+00	2.90129811e-03	1.22242675e-04
1.47500000e+00	2.91420478e-03	1.19043182e-04
1.48000000e+00	2.86592269e-03	1.15805063e-04
1.48500000e+00	2.89216642e-03	1.17031044e-04
1.49000000e+00	2.86949824e-03	1.16337728e-04
1.49500000e+00	2.89689543e-03	1.14914482e-04
1.50000000e+00	2.88901760e-03	1.14296261e-04
1.50500000e+00	2.88185389e-03	1.14533331e-04
1.51000000e+00	2.91141199e-03	1.15913165e-04
1.51500000e+00	2.91766451e-03	1.14286232e-04
1.52000000e+00	2.85978849e-03	1.11619996e-04
1.52500000e+00	2.92531576e-03	1.14070188e-04
1.53000000e+00	2.91323839e-03	1.14281306e-04
1.53500000e+00	2.89754795e-03	1.10399849e-04
1.54000000e+00	2.88714417e-03	1.09855853e-04
1.54500000e+00	2.89028078e-03	1.09786015e-04
1.55000000e+00	2.85018445e-03	1.07990123e-04
1.55500000e+00	2.86193736e-03	1.05945370e-04
1.56000000e+00	2.85140286e-03	1.05752284e-04
1.56500000e+00	2.84504411e-03	1.04952347e-04
1.57000000e+00	2.79426703e-03	1.02501991e-04
1.57500000e+00	2.81630801e-03	1.01304378e-04
1.58000000e+00	2.78324901e-03	9.99509541e-05
1.58500000e+00	2.80101764e-03	1.00590826e-04
1.59000000e+00	2.80551528e-03	1.00781920e-04
1.59500000e+00	2.78767059e-03	9.82944079e-05
1.60000000e+00	2.76772661e-03	9.74699970e-05
1.60500000e+00	2.77053747e-03	9.77355438e-05
1.61000000e+00	2.77399425e-03	9.73602619e-05
1.61500000e+00	2.76000636e-03	9.60069986e-05
1.62000000e+00	2.75912930e-03	9.63878136e-05
1.62500000e+00	2.73119963e-03	9.64632589e-05
1.63000000e+00	2.74014936e-03	9.57763260e-05
1.63500000e+00	2.73289710e-03	9.54726790e-05
1.64000000e+00	2.71415244e-03	9.48705684e-05
1.64500000e+00	2.74163813e-03	9.69033660e-05
1.65000000e+00	2.73897282e-03	9.57583446e-05
1.65500000e+00	2.72181326e-03	9.50047800e-05
1.66000000e+00	2.70825130e-03	9.46416003e-05
1.66500000e+00	2.68694518e-03	9.56031330e-05
1.67000000e+00	2.70110709e-03	9.40717931e-05
1.67500000e+00	2.66128820e-03	9.28883717e-05
1.68000000e+00	2.68039409e-03	9.38355718e-05
1.68500000e+00	2.66777660e-03	9.49311093e-05
1.69000000e+00	2.67477764e-03	9.33566901e-05
1.69500000e+00	2.64364171e-03	9.21490464e-05
1.70000000e+00	2.64782364e-03	9.33473927e-05
1.70500000e+00	2.64090153e-03	9.34785387e-05
1.71000000e+00	2.65522053e-03	9.28583432e-05
1.71500000e+00	2.63825686e-03	9.21353481e-05
1.72000000e+00	2.63101160e-03	9.26545124e-05
1.72500000e+00	2.64246122e-03	9.36216242e-05
1.73000000e+00	2.61018188e-03	9.11986283e-05
1.73500000e+00	2.59541513e-03	9.09231431e-05
1.74000000e+00	2.59179848e-03	9.10043950e-05
1.74500000e+00	2.62144083e-03	9.31896415e-05
1.75000000e+00	2.57752408e-03	8.99513390e-05
1.75500000e+00	2.58606503e-03	9.08112738e-05
1.76000000e+00	2.59001853e-03	9.07932938e-05
1.76500000e+00	2.55685033e-03	9.08350722e-05
1.77000000e+00	2.56205161e-03	8.94352994e-05
1.77500000e+00	2.56404726e-03	8.98310326e-05
1.78000000e+00	2.55157894e-03	8.97611315e-05
1.78500000e+00	2.55366205e-03	9.06453087e-05
1.79000000e+00	2.54923665e-03	8.90869113e-05
1.79500000e+00	2.52105128e-03	8.82861790e-05
1.80000000e+00	2.52287962e-03	8.88220320e-05
1.80500000e+00	2.51544047e-03	8.91589436e-05
1.81000000e+00	2.49726153e-03	8.72042874e-05
1.81500000e+00	2.51020772e-03	8.77407452e-05
1.82000000e+00	2.49858286e-03	8.79416371e-05
1.82500000e+00	2.46899990e-03	8.74626259e-05
1.83000000e+00	2.47426636e-03	8.65213476e-05
1.83500000e+00	2.48351808e-03	8.69351816e-05
1.84000000e+00	2.47307365e-03	8.71446068e-05
1.84500000e+00	2.47780100e-03	8.77868379e-05
1.85000000e+00	2.45259036e-03	8.59021373e-05
1.85500000e+00	2.43328357e-03	8.52671377e-05
1.86000000e+00	2.42215357e-03	8.53561644e-05
1.86500000e+00	2.45265480e-03	8.66829750e-05
1.87000000e+00	2.44716064e-03	8.55589991e-05
1.87500000e+00	2.42484247e-03	8.50717043e-05
1.88000000e+00	2.39898930e-03	8.44894656e-05
1.88500000e+00	2.40200690e-03	8.51748424e-05
1.89000000e+00	2.39871231e-03	8.38672843e-05
1.89500000e+00	2.39624294e-03	8.42501667e-05
1.90000000e+00	2.39148731e-03	8.43354804e-05
1.90500000e+00	2.38617433e-03	8.41601044e-05
1.91000000e+00	2.33934350e-03	8.19584712e-05
1.91500000e+00	2.34552498e-03	8.22747162e-05
1.92000000e+00	2.35856427e-03	8.31126282e-05
1.92500000e+00	2.33354578e-03	8.23416183e-05
1.93000000e+00	2.33118958e-03	8.16142861e-05
1.93500000e+00	2.33493162e-03	8.18991849e-05
1.94000000e+00	2.32024577e-03	8.20977811e-05
1.94500000e+00	2.31237688e-03	8.15085281e-05
1.95000000e+00	2.29384902e-03	8.01775644e-05
1.95500000e+00	2.29946353e-03	8.07019803e-05
1.96000000e+00	2.28536158e-03	8.07186831e-05
1.96500000e+00	2.28708812e-03	8.08063321e-05
1.97000000e+00	2.28239934e-03	7.96351242e-05
1.97500000e+00	2.29044060e-03	8.04443862e-05
1.98000000e+00	2.25376202e-03	7.95202731e-05
1.98500000e+00	2.25724787e-03	7.98633376e-05
1.99000000e+00	2.24636115e-03	7.84069186e-05
1.99500000e+00	2.25547821e-03	7.91109954e-05
2.00000000e+00	2.22691670e-03	7.86823751e-05
2.00500000e+00	2.23779423e-03	7.91723625e-05
2.01000000e+00	2.23166093e-03	8.66354311e-05
2.01500000e+00	2.19407536e-03	9.04540020e-05
2.02000000e+00	2.20623609e-03	9.70838783e-05
2.02500000e+00	2.17166364e-03	9.92776889e-05
2.03000000e+00	2.16897693e-03	1.05009376e-04
2.03500000e+00	2.13873531e-03	1.08180466e-04
2.04000000e+00	2.15811213e-03	1.13900851e-04
2.04500000e+00	2.09797371e-03	1.16637734e-04
2.05000000e+00	2.05328240e-03	1.19894435e-04
2.05500000e+00	2.12046498e-03	1.21348504e-04
2.06000000e+00	2.13784198e-03	1.06481044e-04
2.06500000e+00	2.13960866e-03	1.01797786e-04
2.07000000e+00	2.15581716e-03	9.70493561e-05
2.07500000e+00	2.10070411e-03	9.24725229e-05
2.08000000e+00	2.12946436e-03	9.35336251e-05
2.08500000e+00	2.10787449e-03	9.18264482e-05
2.09000000e+00	2.13049537e-03	8.99267969e-05
2.09500000e+00	2.13002131e-03	8.91238136e-05
2.10000000e+00	2.11301729e-03	8.78110373e-05
2.10500000e+00	2.08539022e-03	8.63155259e-05
2.11000000e+00	2.10553007e-03	8.39650051e-05
2.11500000e+00	2.07966008e-03	8.20284982e-05
2.12000000e+00	2.04259226e-03	8.02263406e-05
2.12500000e+00	2.04868702e-03	8.02179292e-05
2.13000000e+00	2.02473851e-03	7.60911203e-05
2.13500000e+00	2.00247059e-03	7.43332324e-05
2.14000000e+00	1.98943444e-03	7.31937984e-05
2.14500000e+00	1.98545628e-03	7.32258493e-05
2.15000000e+00	1.96642249e-03	7.00917115e-05
2.15500000e+00	1.96475728e-03	7.01762923e-05
2.16000000e+00	1.95795974e-03	6.96433653e-05
2.16500000e+00	1.93477033e-03	6.92812190e-05
2.17000000e+00	1.94703887e-03	6.80434379e-05
2.17500000e+00	1.93208368e-03	6.76591144e-05
2.18000000e+00	1.92172495e-03	6.74699994e-05
2.18500000e+00	1.91847556e-03	6.77308450e-05
2.19000000e+00	1.90742941e-03	6.71814705e-05
2.19500000e+00	1.89020730e-03	6.61907179e-05
2.20000000e+00	1.88888713e-03	6.64366319e-05
2.20500000e+00	1.86992438e-03	6.58905445e-05
2.21000000e+00	1.85384418e-03	6.55286350e-05
2.21500000e+00	1.84785383e-03	6.46648642e-05
2.22000000e+00	1.84294109e-03	6.44205952e-05
2.22500000e+00	1.84068312e-03	6.49178239e-05
2.23000000e+00	1.82076940e-03	6.45854494e-05
2.23500000e+00	1.81127779e-03	6.34228652e-05
2.24000000e+00	1.79972842e-03	6.30124016e-05
2.24500000e+00	1.78527268e-03	6.29064087e-05
2.25000000e+00	1.76817620e-03	6.28788383e-05
2.25500000e+00	1.76700359e-03	6.17669199e-05
2.26000000e+00	1.75894822e-03	6.15901733e-05
2.26500000e+00	1.74041021e-03	6.11457222e-05
2.27000000e+00	1.74442240e-03	6.21965077e-05
2.27500000e+00	1.71877158e-03	6.00353947e-05
2.28000000e+00	1.71079342e-03	5.97397260e-05
2.28500000e+00	1.69936289e-03	5.97483123e-05
2.29000000e+00	1.69330957e-03	5.98965416e-05
2.29500000e+00	1.67511086e-03	5.90993157e-05
2.30000000e+00	1.65121960e-03	5.76420784e-05
2.30500000e+00	1.64971878e-03	5.77289128e-05
2.31000000e+00	1.64601223e-03	5.79319310e-05
2.31500000e+00	1.62770811e-03	5.77728772e-05
2.32000000e+00	1.63452247e-03	5.68751519e-05
2.32500000e+00	1.61167553e-03	5.65779339e-05
2.33000000e+00	1.62000073e-03	5.69762537e-05
2.33500000e+00	1.59932232e-03	5.67731757e-05
2.34000000e+00	1.58624915e-03	5.54391539e-05
2.34500000e+00	1.58213154e-03	5.52147233e-05
2.35000000e+00	1.56337504e-03	5.48196275e-05
2.35500000e+00	1.55003052e-03	5.50763912e-05
2.36000000e+00	1.54457073e-03	5.41443169e-05
2.36500000e+00	1.52892906e-03	5.34563371e-05
2.37000000e+00	1.52774254e-03	5.34416247e-05
2.37500000e+00	1.51871977e-03	5.36596698e-05
2.38000000e+00	1.51071516e-03	5.36190564e-05
2.38500000e+00	1.49004507e-03	5.20926768e-05
2.39000000e+00	1.48281504e-03	5.20189734e-05
2.39500000e+00	1.49541983e-03	5.27075199e-05
2.40000000e+00	1.47491890e-03	5.27563583e-05
2.40500000e+00	1.45992178e-03	5.11340289e-05
2.41000000e+00	1.44745696e-03	5.09110622e-05
2.41500000e+00	1.44655273e-03	5.09299710e-05
2.42000000e+00	1.43448138e-03	5.12459375e-05
2.42500000e+00	1.43715859e-03	5.11236485e-05
2.43000000e+00	1.42407914e-03	5.01836235e-05
2.43500000e+00	1.42599392e-03	5.04710854e-05
2.44000000e+00	1.40004832e-03	4.97049541e-05
2.44500000e+00	1.38669309e-03	4.98535042e-05
2.45000000e+00	1.39744799e-03	4.92973687e-05
2.45500000e+00	1.37309870e-03	4.86330871e-05
2.46000000e+00	1.37114351e-03	4.86969642e-05
2.46500000e+00	1.35206638e-03	4.86584565e-05
2.47000000e+00	1.35587786e-03	4.83035499e-05
2.47500000e+00	1.34777454e-03	4.77499497e-05
2.48000000e+00	1.34505762e-03	4.80321720e-05
2.48500000e+00	1.30782417e-03	4.66883774e-05
2.49000000e+00	1.31532109e-03	4.76826550e-05
2.49500000e+00	1.31641983e-03	4.67909899e-05
2.50000000e+00	1.29948386e-03	4.63037527e-05
2.50500000e+00	1.30327228e-03	4.66757771e-05
2.51000000e+00	1.29875823e-03	4.68342456e-05
2.51500000e+00	1.29503621e-03	4.68414838e-05
2.52000000e+00	1.27578093e-03	4.57820049e-05
2.52500000e+00	1.26903080e-03	4.56966637e-05
2.53000000e+00	1.26302399e-03	4.59162854e-05
2.53500000e+00	1.25528265e-03	4.62109283e-05
2.54000000e+00	1.25460982e-03	4.53427633e-05
2.54500000e+00	1.23747863e-03	4.49367903e-05
2.55000000e+00	1.22662519e-03	4.47227581e-05
2.55500000e+00	1.24309312e-03	4.57369443e-05
2.56000000e+00	1.22500525e-03	4.53005750e-05
2.56500000e+00	1.21057539e-03	4.43587164e-05
2.57000000e+00	1.21202464e-03	4.46490944e-05
2.57500000e+00	1.20240696e-03	4.43375300e-05
2.58000000e+00	1.20012257e-03	4.50456524e-05
2.58500000e+00	1.17926500e-03	4.39484190e-05
2.59000000e+00	1.19212202e-03	4.42102508e-05
2.59500000e+00	1.17065898e-03	4.35655546e-05
2.60000000e+00	1.17058811e-03	4.39360997e-05
2.60500000e+00	1.17198444e-03	4.49950225e-05
2.61000000e+00	1.17021993e-03	5.10888707e-05
2.61500000e+00	1.14012868e-03	5.50175278e-05
2.62000000e+00	1.12868860e-03	6.00036600e-05
2.62500000e+00	1.15374655e-03	6.64587321e-05
2.63000000e+00	1.12872472e-03	7.20921956e-05
2.63500000e+00	1.14738465e-03	8.07613152e-05
2.64000000e+00	1.13228883e-03	8.84656509e-05
2.64500000e+00	1.13634081e-03	9.44178497e-05
2.65000000e+00	1.11722484e-03	9.81574271e-05
2.65500000e+00	1.10968062e-03	1.04434073e-04
2.66000000e+00	1.08279161e-03	1.09556855e-04
2.66500000e+00	1.09469249e-03	1.25001645e-04
2.67000000e+00	1.14402435e-03	1.40844462e-04
2.67500000e+00	1.07291496e-03	1.54727051e-04
2.68000000e+00	1.10594260e-03	1.85593417e-04
2.68500000e+00	1.06603747e-03	2.36369096e-04
2.69000000e+00	1.06311376e-03	3.80539686e-04
2.69500000e+00	0.00000000e+00	0.00000000e+00
2.70000000e+00	0.00000000e+00	0.00000000e+00
