% Filename : WDL13_00034_00009.h5
% Date & Time : 30-Oct-2025 17:28:51
% X-ray Energy (keV) : 13.30001
% Exposure Time (s) : 0.500
% Photodiode Value : 141285.000
% I0 of Sample : 0
% I0 of Standard : 1
% 
% q(A^-1)   I(q)    I(q)_SE
8.40000000e-01	0.00000000e+00	0.00000000e+00
8.45000000e-01	2.82550631e-03	4.97092501e-04
8.50000000e-01	2.66231386e-03	2.46974560e-04
8.55000000e-01	2.62730371e-03	2.14438840e-04
8.60000000e-01	2.58774279e-03	1.83360036e-04
8.65000000e-01	2.59911605e-03	1.69765814e-04
8.70000000e-01	2.60244835e-03	1.61834525e-04
8.75000000e-01	2.63671776e-03	1.57554394e-04
8.80000000e-01	2.62663730e-03	1.52001731e-04
8.85000000e-01	2.64125055e-03	1.44323979e-04
8.90000000e-01	2.63411050e-03	1.41007673e-04
8.95000000e-01	2.65806040e-03	1.38207566e-04
9.00000000e-01	2.69284193e-03	1.38594070e-04
9.05000000e-01	2.70071696e-03	1.33132630e-04
9.10000000e-01	2.67325843e-03	1.29084229e-04
9.15000000e-01	2.68485736e-03	1.27733202e-04
9.20000000e-01	2.68252767e-03	1.27452668e-04
9.25000000e-01	2.69960130e-03	1.22652026e-04
9.30000000e-01	2.72038459e-03	1.22456434e-04
9.35000000e-01	2.70574074e-03	1.19419837e-04
9.40000000e-01	2.70102837e-03	1.19586303e-04
9.45000000e-01	2.70070844e-03	1.16558104e-04
9.50000000e-01	2.73435332e-03	1.16354407e-04
9.55000000e-01	2.72038285e-03	1.13701228e-04
9.60000000e-01	2.74685451e-03	1.14877775e-04
9.65000000e-01	2.71416956e-03	1.11584186e-04
9.70000000e-01	2.74894166e-03	1.11268457e-04
9.75000000e-01	2.73440606e-03	1.09335697e-04
9.80000000e-01	2.75955590e-03	1.09490981e-04
9.85000000e-01	2.74383155e-03	1.09000975e-04
9.90000000e-01	2.75619728e-03	1.06052501e-04
9.95000000e-01	2.76779516e-03	1.06054458e-04
1.00000000e+00	2.73865076e-03	1.04421179e-04
1.00500000e+00	2.76431025e-03	1.05428003e-04
1.01000000e+00	2.76731438e-03	1.03327425e-04
1.01500000e+00	2.76459931e-03	1.02196481e-04
1.02000000e+00	2.76388711e-03	1.02166801e-04
1.02500000e+00	2.73957246e-03	1.00060729e-04
1.03000000e+00	2.74073380e-03	9.97539824e-05
1.03500000e+00	2.74551518e-03	9.85290967e-05
1.04000000e+00	2.71897684e-03	9.69359961e-05
1.04500000e+00	2.70727518e-03	9.65169800e-05
1.05000000e+00	2.70397866e-03	9.59735633e-05
1.05500000e+00	2.72656351e-03	9.52273810e-05
1.06000000e+00	2.73619133e-03	9.53688926e-05
1.06500000e+00	2.74080369e-03	9.55961841e-05
1.07000000e+00	2.71519147e-03	9.45184806e-05
1.07500000e+00	2.73862703e-03	9.45606924e-05
1.08000000e+00	2.76477205e-03	9.49650872e-05
1.08500000e+00	2.75482695e-03	9.47764722e-05
1.09000000e+00	2.76277160e-03	9.53611763e-05
1.09500000e+00	2.75451125e-03	9.34208765e-05
1.10000000e+00	2.77081777e-03	9.44398241e-05
1.10500000e+00	2.79243223e-03	9.53827645e-05
1.11000000e+00	2.80352312e-03	9.60993654e-05
1.11500000e+00	2.77370416e-03	9.42587804e-05
1.12000000e+00	2.81908399e-03	9.62265064e-05
1.12500000e+00	2.80217046e-03	9.54643576e-05
1.13000000e+00	2.82052171e-03	9.70666006e-05
1.13500000e+00	2.84042976e-03	9.66989833e-05
1.14000000e+00	2.85728874e-03	9.69999722e-05
1.14500000e+00	2.83727381e-03	9.71521273e-05
1.15000000e+00	2.84130676e-03	9.78917923e-05
1.15500000e+00	2.86878340e-03	9.75904351e-05
1.16000000e+00	2.84248055e-03	9.70598763e-05
1.16500000e+00	2.85255274e-03	9.73084498e-05
1.17000000e+00	2.85731788e-03	9.87621993e-05
1.17500000e+00	2.86962384e-03	9.77505277e-05
1.18000000e+00	2.86534523e-03	9.80028762e-05
1.18500000e+00	2.88889682e-03	9.87063024e-05
1.19000000e+00	2.88433123e-03	9.95269198e-05
1.19500000e+00	2.92602046e-03	9.97989515e-05
1.20000000e+00	2.88886071e-03	9.91207140e-05
1.20500000e+00	2.89575686e-03	9.90723031e-05
1.21000000e+00	2.89236548e-03	1.00365151e-04
1.21500000e+00	2.91191660e-03	9.93296574e-05
1.22000000e+00	2.91118034e-03	9.94712197e-05
1.22500000e+00	2.91228869e-03	9.99663929e-05
1.23000000e+00	2.89350936e-03	1.00045240e-04
1.23500000e+00	2.92612464e-03	1.00436159e-04
1.24000000e+00	2.92504267e-03	9.99019628e-05
1.24500000e+00	2.94506934e-03	1.01347665e-04
1.25000000e+00	2.92407435e-03	1.01307897e-04
1.25500000e+00	2.94061144e-03	1.00521679e-04
1.26000000e+00	2.93381931e-03	1.00971064e-04
1.26500000e+00	2.92457039e-03	1.00368666e-04
1.27000000e+00	2.92710990e-03	1.01936378e-04
1.27500000e+00	2.95459238e-03	1.01824539e-04
1.28000000e+00	2.91989527e-03	9.99172691e-05
1.28500000e+00	2.94070121e-03	1.01248502e-04
1.29000000e+00	2.95040619e-03	1.02509509e-04
1.29500000e+00	2.93549668e-03	1.00818260e-04
1.30000000e+00	2.94518379e-03	1.00993323e-04
1.30500000e+00	2.94131555e-03	1.01405228e-04
1.31000000e+00	2.93013276e-03	1.02252429e-04
1.31500000e+00	2.95375732e-03	1.01712396e-04
1.32000000e+00	2.97047517e-03	1.02120647e-04
1.32500000e+00	2.96731832e-03	1.02329341e-04
1.33000000e+00	2.92608774e-03	1.02150579e-04
1.33500000e+00	2.94888326e-03	1.01485027e-04
1.34000000e+00	2.97490060e-03	1.02509514e-04
1.34500000e+00	2.95250125e-03	1.02121902e-04
1.35000000e+00	2.94566465e-03	1.02891173e-04
1.35500000e+00	2.92498270e-03	1.00790614e-04
1.36000000e+00	2.95606188e-03	1.01620481e-04
1.36500000e+00	2.94596546e-03	1.01659988e-04
1.37000000e+00	2.93157777e-03	1.02590475e-04
1.37500000e+00	2.94866162e-03	1.01705004e-04
1.38000000e+00	2.92502429e-03	1.01102619e-04
1.38500000e+00	2.92541782e-03	1.01619071e-04
1.39000000e+00	2.93469950e-03	1.02638249e-04
1.39500000e+00	2.93312216e-03	1.01124162e-04
1.40000000e+00	2.98447033e-03	1.05915131e-04
1.40500000e+00	2.92061573e-03	1.11650387e-04
1.41000000e+00	2.89844040e-03	1.16015780e-04
1.41500000e+00	2.90378076e-03	1.20446208e-04
1.42000000e+00	2.86140952e-03	1.23364471e-04
1.42500000e+00	2.83746247e-03	1.26022883e-04
1.43000000e+00	2.86328987e-03	1.31933289e-04
1.43500000e+00	2.85045424e-03	1.35280088e-04
1.44000000e+00	2.83352173e-03	1.39918945e-04
1.44500000e+00	2.83493813e-03	1.43514039e-04
1.45000000e+00	2.89407152e-03	1.41722395e-04
1.45500000e+00	2.92256179e-03	1.28548819e-04
1.46000000e+00	2.89697859e-03	1.24412452e-04
1.46500000e+00	2.91461450e-03	1.22973681e-04
1.47000000e+00	2.91354066e-03	1.22678879e-04
1.47500000e+00	2.89994983e-03	1.18527288e-04
1.48000000e+00	2.87638832e-03	1.16367117e-04
1.48500000e+00	2.89880342e-03	1.17215995e-04
1.49000000e+00	2.90120391e-03	1.17727451e-04
1.49500000e+00	2.90064504e-03	1.15057720e-04
1.50000000e+00	2.90759212e-03	1.14974874e-04
1.50500000e+00	2.90682481e-03	1.15468910e-04
1.51000000e+00	2.88900832e-03	1.15028224e-04
1.51500000e+00	2.89792349e-03	1.13404667e-04
1.52000000e+00	2.90339446e-03	1.13329258e-04
1.52500000e+00	2.90922930e-03	1.13547547e-04
1.53000000e+00	2.89162259e-03	1.13476255e-04
1.53500000e+00	2.87963656e-03	1.09715712e-04
1.54000000e+00	2.90202073e-03	1.10410533e-04
1.54500000e+00	2.88837443e-03	1.09703142e-04
1.55000000e+00	2.88230707e-03	1.09200989e-04
1.55500000e+00	2.88221184e-03	1.06674218e-04
1.56000000e+00	2.83967089e-03	1.05338725e-04
1.56500000e+00	2.85020008e-03	1.05267386e-04
1.57000000e+00	2.83383417e-03	1.03837437e-04
1.57500000e+00	2.81152188e-03	1.01097415e-04
1.58000000e+00	2.79536219e-03	1.00417362e-04
1.58500000e+00	2.78051625e-03	9.99063057e-05
1.59000000e+00	2.79457901e-03	1.00380611e-04
1.59500000e+00	2.78924015e-03	9.83668348e-05
1.60000000e+00	2.78322830e-03	9.80220538e-05
1.60500000e+00	2.78282069e-03	9.80525006e-05
1.61000000e+00	2.75973521e-03	9.68065324e-05
1.61500000e+00	2.75138124e-03	9.56909260e-05
1.62000000e+00	2.75266509e-03	9.61511975e-05
1.62500000e+00	2.76490246e-03	9.77425003e-05
1.63000000e+00	2.73430590e-03	9.55723356e-05
1.63500000e+00	2.75537298e-03	9.62996036e-05
1.64000000e+00	2.71555727e-03	9.49688679e-05
1.64500000e+00	2.73445184e-03	9.66451554e-05
1.65000000e+00	2.74200665e-03	9.58828607e-05
1.65500000e+00	2.69926561e-03	9.41817621e-05
1.66000000e+00	2.70559131e-03	9.45619983e-05
1.66500000e+00	2.72441576e-03	9.68734677e-05
1.67000000e+00	2.69891322e-03	9.39864600e-05
1.67500000e+00	2.68920336e-03	9.39008909e-05
1.68000000e+00	2.68330668e-03	9.39447383e-05
1.68500000e+00	2.66933517e-03	9.50414335e-05
1.69000000e+00	2.68055070e-03	9.36210799e-05
1.69500000e+00	2.66942386e-03	9.29665910e-05
1.70000000e+00	2.64995814e-03	9.34705385e-05
1.70500000e+00	2.66209916e-03	9.42348620e-05
1.71000000e+00	2.65344677e-03	9.27029335e-05
1.71500000e+00	2.62283327e-03	9.15913495e-05
1.72000000e+00	2.61623636e-03	9.21328823e-05
1.72500000e+00	2.63342178e-03	9.32610683e-05
1.73000000e+00	2.63066127e-03	9.19388995e-05
1.73500000e+00	2.60632951e-03	9.12740280e-05
1.74000000e+00	2.60248765e-03	9.13934139e-05
1.74500000e+00	2.58546096e-03	9.19031643e-05
1.75000000e+00	2.58711729e-03	9.01656189e-05
1.75500000e+00	2.59303118e-03	9.09654514e-05
1.76000000e+00	2.59060471e-03	9.08711465e-05
1.76500000e+00	2.57852139e-03	9.16521654e-05
1.77000000e+00	2.56614289e-03	8.96310509e-05
1.77500000e+00	2.57263511e-03	9.01311356e-05
1.78000000e+00	2.56541283e-03	9.01799655e-05
1.78500000e+00	2.56490824e-03	9.10615287e-05
1.79000000e+00	2.54933150e-03	8.89515966e-05
1.79500000e+00	2.53625041e-03	8.88091472e-05
1.80000000e+00	2.53077152e-03	8.91578317e-05
1.80500000e+00	2.52076276e-03	8.92836727e-05
1.81000000e+00	2.54185295e-03	8.88201398e-05
1.81500000e+00	2.51453493e-03	8.79369446e-05
1.82000000e+00	2.50533139e-03	8.81379117e-05
1.82500000e+00	2.51281627e-03	8.90065955e-05
1.83000000e+00	2.48652324e-03	8.69525297e-05
1.83500000e+00	2.47831208e-03	8.67367522e-05
1.84000000e+00	2.49315853e-03	8.78317810e-05
1.84500000e+00	2.47913589e-03	8.78217979e-05
1.85000000e+00	2.46355936e-03	8.63172690e-05
1.85500000e+00	2.45828970e-03	8.60920239e-05
1.86000000e+00	2.45637682e-03	8.66168313e-05
1.86500000e+00	2.43639915e-03	8.61266522e-05
1.87000000e+00	2.43906817e-03	8.53056918e-05
1.87500000e+00	2.42439259e-03	8.50456915e-05
1.88000000e+00	2.42196177e-03	8.52998274e-05
1.88500000e+00	2.42724788e-03	8.60639960e-05
1.89000000e+00	2.41873819e-03	8.45190133e-05
1.89500000e+00	2.40251334e-03	8.44998569e-05
1.90000000e+00	2.38336029e-03	8.40100094e-05
1.90500000e+00	2.40287022e-03	8.47487179e-05
1.91000000e+00	2.38503193e-03	8.35940684e-05
1.91500000e+00	2.38025261e-03	8.34291170e-05
1.92000000e+00	2.36817081e-03	8.34910357e-05
1.92500000e+00	2.37564392e-03	8.38591954e-05
1.93000000e+00	2.33285079e-03	8.15730242e-05
1.93500000e+00	2.35303080e-03	8.25316949e-05
1.94000000e+00	2.34075674e-03	8.27898208e-05
1.94500000e+00	2.32827126e-03	8.21181010e-05
1.95000000e+00	2.31545001e-03	8.09837569e-05
1.95500000e+00	2.30757680e-03	8.09942363e-05
1.96000000e+00	2.31514808e-03	8.17956484e-05
1.96500000e+00	2.28199627e-03	8.05590937e-05
1.97000000e+00	2.29862908e-03	8.02729355e-05
1.97500000e+00	2.28900897e-03	8.04693783e-05
1.98000000e+00	2.27808859e-03	8.03658836e-05
1.98500000e+00	2.28131695e-03	8.06627889e-05
1.99000000e+00	2.25847816e-03	7.88041574e-05
1.99500000e+00	2.25541150e-03	7.90984265e-05
2.00000000e+00	2.24461482e-03	7.92935382e-05
2.00500000e+00	2.27600257e-03	8.05422604e-05
2.01000000e+00	2.23777279e-03	8.69207212e-05
2.01500000e+00	2.20980418e-03	9.10807495e-05
2.02000000e+00	2.22888919e-03	9.79165238e-05
2.02500000e+00	2.17865520e-03	9.96472596e-05
2.03000000e+00	2.17825207e-03	1.05450987e-04
2.03500000e+00	2.14900753e-03	1.08805383e-04
2.04000000e+00	2.11601202e-03	1.12022815e-04
2.04500000e+00	2.12710321e-03	1.18228115e-04
2.05000000e+00	2.13844054e-03	1.24846189e-04
2.05500000e+00	2.14605975e-03	1.22885074e-04
2.06000000e+00	2.15270319e-03	1.07114566e-04
2.06500000e+00	2.14046511e-03	1.01705711e-04
2.07000000e+00	2.15739322e-03	9.70789379e-05
2.07500000e+00	2.10874872e-03	9.29133656e-05
2.08000000e+00	2.14321717e-03	9.40445891e-05
2.08500000e+00	2.11029252e-03	9.18516136e-05
2.09000000e+00	2.12274148e-03	8.96561073e-05
2.09500000e+00	2.12396230e-03	8.88003758e-05
2.10000000e+00	2.09872271e-03	8.71201237e-05
2.10500000e+00	2.10548459e-03	8.71106679e-05
2.11000000e+00	2.07543611e-03	8.27483604e-05
2.11500000e+00	2.09343537e-03	8.25676697e-05
2.12000000e+00	2.05939973e-03	8.09244800e-05
2.12500000e+00	2.04336592e-03	8.00398306e-05
2.13000000e+00	2.03450658e-03	7.63417114e-05
2.13500000e+00	2.01396289e-03	7.47940649e-05
2.14000000e+00	2.00776946e-03	7.38605126e-05
2.14500000e+00	2.00238364e-03	7.38830910e-05
2.15000000e+00	1.98831907e-03	7.09091201e-05
2.15500000e+00	1.97213284e-03	7.05301300e-05
2.16000000e+00	1.97102367e-03	7.00773156e-05
2.16500000e+00	1.96669148e-03	7.04075262e-05
2.17000000e+00	1.94868367e-03	6.80837135e-05
2.17500000e+00	1.95075311e-03	6.83400196e-05
2.18000000e+00	1.93693272e-03	6.80915132e-05
2.18500000e+00	1.92344390e-03	6.79502517e-05
2.19000000e+00	1.91337565e-03	6.73654834e-05
2.19500000e+00	1.90620532e-03	6.67774913e-05
2.20000000e+00	1.89554784e-03	6.64927787e-05
2.20500000e+00	1.90901247e-03	6.72221494e-05
2.21000000e+00	1.88279007e-03	6.66952610e-05
2.21500000e+00	1.86918880e-03	6.54249406e-05
2.22000000e+00	1.84925976e-03	6.46488368e-05
2.22500000e+00	1.82595673e-03	6.43770694e-05
2.23000000e+00	1.83875993e-03	6.52517971e-05
2.23500000e+00	1.82567792e-03	6.38606316e-05
2.24000000e+00	1.81288663e-03	6.34455952e-05
2.24500000e+00	1.79803394e-03	6.33312934e-05
2.25000000e+00	1.80497665e-03	6.41577550e-05
2.25500000e+00	1.79037613e-03	6.24559753e-05
2.26000000e+00	1.76752687e-03	6.19409958e-05
2.26500000e+00	1.76132439e-03	6.19061935e-05
2.27000000e+00	1.75080011e-03	6.23955555e-05
2.27500000e+00	1.72855598e-03	6.03521073e-05
2.28000000e+00	1.71346744e-03	5.98542225e-05
2.28500000e+00	1.71250477e-03	6.01796488e-05
2.29000000e+00	1.72787506e-03	6.10621792e-05
2.29500000e+00	1.66796011e-03	5.88137396e-05
2.30000000e+00	1.68048043e-03	5.87163262e-05
2.30500000e+00	1.66381356e-03	5.83308495e-05
2.31000000e+00	1.65557119e-03	5.83392183e-05
2.31500000e+00	1.63860582e-03	5.81824199e-05
2.32000000e+00	1.62740587e-03	5.65986207e-05
2.32500000e+00	1.62393627e-03	5.69510595e-05
2.33000000e+00	1.60542829e-03	5.63888142e-05
2.33500000e+00	1.61104808e-03	5.72403527e-05
2.34000000e+00	1.60027131e-03	5.58056523e-05
2.34500000e+00	1.59760771e-03	5.57559209e-05
2.35000000e+00	1.59078612e-03	5.58103081e-05
2.35500000e+00	1.55696521e-03	5.53060262e-05
2.36000000e+00	1.55130790e-03	5.43268634e-05
2.36500000e+00	1.54546579e-03	5.40390468e-05
2.37000000e+00	1.52686370e-03	5.34786219e-05
2.37500000e+00	1.51933668e-03	5.36420630e-05
2.38000000e+00	1.50011845e-03	5.31869800e-05
2.38500000e+00	1.49360429e-03	5.22481123e-05
2.39000000e+00	1.48904105e-03	5.22050167e-05
2.39500000e+00	1.48106938e-03	5.22460656e-05
2.40000000e+00	1.50818960e-03	5.38794295e-05
2.40500000e+00	1.45830283e-03	5.11484417e-05
2.41000000e+00	1.45884787e-03	5.13700691e-05
2.41500000e+00	1.44442830e-03	5.08280799e-05
2.42000000e+00	1.42696046e-03	5.09497030e-05
2.42500000e+00	1.45231205e-03	5.16865745e-05
2.43000000e+00	1.42657006e-03	5.02983248e-05
2.43500000e+00	1.41880819e-03	5.02856337e-05
2.44000000e+00	1.40281750e-03	4.97700767e-05
2.44500000e+00	1.41267736e-03	5.08007034e-05
2.45000000e+00	1.38838824e-03	4.90957812e-05
2.45500000e+00	1.38409160e-03	4.90327624e-05
2.46000000e+00	1.39079154e-03	4.94536949e-05
2.46500000e+00	1.36158553e-03	4.89995304e-05
2.47000000e+00	1.34823492e-03	4.80866453e-05
2.47500000e+00	1.34456040e-03	4.75707899e-05
2.48000000e+00	1.34205121e-03	4.79791407e-05
2.48500000e+00	1.33042114e-03	4.75704506e-05
2.49000000e+00	1.33855896e-03	4.84907728e-05
2.49500000e+00	1.32531325e-03	4.70690266e-05
2.50000000e+00	1.29952646e-03	4.63252835e-05
2.50500000e+00	1.29411837e-03	4.63622356e-05
2.51000000e+00	1.30370403e-03	4.69685508e-05
2.51500000e+00	1.28368545e-03	4.64004287e-05
2.52000000e+00	1.28124115e-03	4.59185053e-05
2.52500000e+00	1.28363978e-03	4.62123980e-05
2.53000000e+00	1.27850411e-03	4.64888125e-05
2.53500000e+00	1.26996916e-03	4.66616712e-05
2.54000000e+00	1.25208768e-03	4.52705889e-05
2.54500000e+00	1.25491314e-03	4.55019393e-05
2.55000000e+00	1.23680630e-03	4.51485620e-05
2.55500000e+00	1.24933275e-03	4.60347999e-05
2.56000000e+00	1.23118644e-03	4.55405432e-05
2.56500000e+00	1.21156187e-03	4.44146564e-05
2.57000000e+00	1.21175045e-03	4.45869787e-05
2.57500000e+00	1.21006740e-03	4.46968752e-05
2.58000000e+00	1.19211960e-03	4.47411958e-05
2.58500000e+00	1.19240265e-03	4.43564999e-05
2.59000000e+00	1.18811684e-03	4.41314554e-05
2.59500000e+00	1.17756333e-03	4.38546462e-05
2.60000000e+00	1.17137041e-03	4.39388730e-05
2.60500000e+00	1.19907828e-03	4.59814396e-05
2.61000000e+00	1.18310393e-03	5.17201827e-05
2.61500000e+00	1.14283462e-03	5.52839897e-05
2.62000000e+00	1.15230471e-03	6.12364336e-05
2.62500000e+00	1.13887609e-03	6.54205842e-05
2.63000000e+00	1.13643583e-03	7.23121807e-05
2.63500000e+00	1.12213564e-03	7.90414349e-05
2.64000000e+00	1.15277375e-03	8.97861024e-05
2.64500000e+00	1.15218022e-03	9.58292788e-05
2.65000000e+00	1.13289436e-03	9.92612929e-05
2.65500000e+00	1.13959916e-03	1.07413103e-04
2.66000000e+00	1.09236896e-03	1.11173661e-04
2.66500000e+00	1.11956923e-03	1.26937313e-04
2.67000000e+00	1.12231547e-03	1.38074914e-04
2.67500000e+00	1.10689379e-03	1.60198094e-04
2.68000000e+00	1.08381398e-03	1.81503553e-04
2.68500000e+00	1.10645624e-03	2.44231213e-04
2.69000000e+00	1.05360824e-03	3.80642969e-04
2.69500000e+00	0.00000000e+00	0.00000000e+00
2.70000000e+00	0.00000000e+00	0.00000000e+00
