% Filename : WDL13_00034_00039.h5
% Date & Time : 30-Oct-2025 17:30:16
% X-ray Energy (keV) : 13.30001
% Exposure Time (s) : 0.500
% Photodiode Value : 140688.000
% I0 of Sample : 0
% I0 of Standard : 1
% 
% q(A^-1)   I(q)    I(q)_SE
8.40000000e-01	0.00000000e+00	0.00000000e+00
8.45000000e-01	2.87264846e-03	5.02974382e-04
8.50000000e-01	2.65735571e-03	2.47515768e-04
8.55000000e-01	2.58768108e-03	2.11721579e-04
8.60000000e-01	2.63123369e-03	1.86364779e-04
8.65000000e-01	2.60477819e-03	1.69871787e-04
8.70000000e-01	2.64057081e-03	1.64314046e-04
8.75000000e-01	2.63256376e-03	1.57366222e-04
8.80000000e-01	2.62032449e-03	1.51368326e-04
8.85000000e-01	2.62143717e-03	1.43366703e-04
8.90000000e-01	2.67119658e-03	1.42856139e-04
8.95000000e-01	2.67179425e-03	1.38914545e-04
9.00000000e-01	2.69284459e-03	1.38753957e-04
9.05000000e-01	2.68877191e-03	1.32436741e-04
9.10000000e-01	2.68700742e-03	1.29775828e-04
9.15000000e-01	2.71773596e-03	1.29191483e-04
9.20000000e-01	2.72178475e-03	1.29385579e-04
9.25000000e-01	2.70214662e-03	1.22879827e-04
9.30000000e-01	2.72689734e-03	1.22818736e-04
9.35000000e-01	2.73461960e-03	1.20728554e-04
9.40000000e-01	2.70501223e-03	1.19696339e-04
9.45000000e-01	2.72482051e-03	1.17605646e-04
9.50000000e-01	2.75501172e-03	1.17231513e-04
9.55000000e-01	2.72341339e-03	1.13823339e-04
9.60000000e-01	2.70536613e-03	1.13108168e-04
9.65000000e-01	2.73184884e-03	1.12234543e-04
9.70000000e-01	2.74835398e-03	1.11190415e-04
9.75000000e-01	2.76722282e-03	1.10717428e-04
9.80000000e-01	2.75095595e-03	1.09065339e-04
9.85000000e-01	2.75245491e-03	1.09323315e-04
9.90000000e-01	2.74399450e-03	1.05604843e-04
9.95000000e-01	2.77176085e-03	1.06177967e-04
1.00000000e+00	2.76916339e-03	1.05551590e-04
1.00500000e+00	2.75814279e-03	1.05281838e-04
1.01000000e+00	2.76472373e-03	1.03192918e-04
1.01500000e+00	2.77266457e-03	1.02506324e-04
1.02000000e+00	2.77405663e-03	1.02614931e-04
1.02500000e+00	2.75685948e-03	1.00759878e-04
1.03000000e+00	2.76790367e-03	1.00747261e-04
1.03500000e+00	2.74515032e-03	9.84504880e-05
1.04000000e+00	2.74444632e-03	9.78731847e-05
1.04500000e+00	2.73892310e-03	9.78274298e-05
1.05000000e+00	2.74279102e-03	9.71956164e-05
1.05500000e+00	2.71909559e-03	9.49575169e-05
1.06000000e+00	2.73104138e-03	9.50882205e-05
1.06500000e+00	2.71839789e-03	9.47493212e-05
1.07000000e+00	2.74288094e-03	9.55372623e-05
1.07500000e+00	2.76497848e-03	9.54364597e-05
1.08000000e+00	2.77923149e-03	9.53933672e-05
1.08500000e+00	2.76789787e-03	9.50749262e-05
1.09000000e+00	2.76099726e-03	9.54400680e-05
1.09500000e+00	2.77800426e-03	9.40356074e-05
1.10000000e+00	2.77808886e-03	9.47471650e-05
1.10500000e+00	2.81326974e-03	9.62911941e-05
1.11000000e+00	2.80279286e-03	9.59353804e-05
1.11500000e+00	2.81245323e-03	9.55646296e-05
1.12000000e+00	2.83195117e-03	9.66015136e-05
1.12500000e+00	2.82013118e-03	9.60536652e-05
1.13000000e+00	2.81034158e-03	9.68634490e-05
1.13500000e+00	2.84572215e-03	9.68326341e-05
1.14000000e+00	2.84361195e-03	9.65664577e-05
1.14500000e+00	2.86178825e-03	9.79834127e-05
1.15000000e+00	2.85482195e-03	9.82780383e-05
1.15500000e+00	2.87622044e-03	9.79481228e-05
1.16000000e+00	2.89338210e-03	9.88101395e-05
1.16500000e+00	2.88301889e-03	9.84353230e-05
1.17000000e+00	2.88697429e-03	9.97421605e-05
1.17500000e+00	2.89223147e-03	9.85370225e-05
1.18000000e+00	2.90634589e-03	9.94020034e-05
1.18500000e+00	2.92362515e-03	9.98645284e-05
1.19000000e+00	2.90193305e-03	1.00247623e-04
1.19500000e+00	2.92425520e-03	9.96709963e-05
1.20000000e+00	2.92525985e-03	1.00372525e-04
1.20500000e+00	2.91269724e-03	9.97497945e-05
1.21000000e+00	2.91804289e-03	1.01220914e-04
1.21500000e+00	2.92648279e-03	9.98781491e-05
1.22000000e+00	2.94384996e-03	1.00584732e-04
1.22500000e+00	2.90928577e-03	9.97687699e-05
1.23000000e+00	2.92365382e-03	1.01048465e-04
1.23500000e+00	2.94170390e-03	1.01035074e-04
1.24000000e+00	2.92684802e-03	1.00005129e-04
1.24500000e+00	2.96000691e-03	1.01920555e-04
1.25000000e+00	2.95262736e-03	1.02240665e-04
1.25500000e+00	2.94225914e-03	1.00726629e-04
1.26000000e+00	2.95448046e-03	1.01636166e-04
1.26500000e+00	2.94515196e-03	1.01010237e-04
1.27000000e+00	2.95169480e-03	1.02758368e-04
1.27500000e+00	2.95897890e-03	1.01940757e-04
1.28000000e+00	2.95052947e-03	1.00976608e-04
1.28500000e+00	2.99461881e-03	1.03053456e-04
1.29000000e+00	2.95450281e-03	1.02608060e-04
1.29500000e+00	2.95084589e-03	1.01443810e-04
1.30000000e+00	2.96073663e-03	1.01562450e-04
1.30500000e+00	2.96935522e-03	1.02284436e-04
1.31000000e+00	2.97569638e-03	1.03820200e-04
1.31500000e+00	2.97860866e-03	1.02586844e-04
1.32000000e+00	2.98280650e-03	1.02623076e-04
1.32500000e+00	2.96420513e-03	1.02283727e-04
1.33000000e+00	2.97320703e-03	1.03852663e-04
1.33500000e+00	2.95924810e-03	1.01934569e-04
1.34000000e+00	2.97514004e-03	1.02505209e-04
1.34500000e+00	2.97338725e-03	1.02786896e-04
1.35000000e+00	2.96753792e-03	1.03615075e-04
1.35500000e+00	2.97241020e-03	1.02385941e-04
1.36000000e+00	2.96044913e-03	1.01839298e-04
1.36500000e+00	2.94518362e-03	1.01661759e-04
1.37000000e+00	2.95614012e-03	1.03560862e-04
1.37500000e+00	2.95446485e-03	1.01847888e-04
1.38000000e+00	2.96973911e-03	1.02629218e-04
1.38500000e+00	2.95934128e-03	1.02804214e-04
1.39000000e+00	2.95426875e-03	1.03293953e-04
1.39500000e+00	2.95369149e-03	1.01778090e-04
1.40000000e+00	2.99442877e-03	1.06231229e-04
1.40500000e+00	2.95616395e-03	1.12906570e-04
1.41000000e+00	2.91902219e-03	1.16758755e-04
1.41500000e+00	2.88597322e-03	1.19677920e-04
1.42000000e+00	2.88025762e-03	1.24266185e-04
1.42500000e+00	2.89660657e-03	1.28617765e-04
1.43000000e+00	2.89092576e-03	1.33351954e-04
1.43500000e+00	2.86426062e-03	1.35975339e-04
1.44000000e+00	2.84912353e-03	1.40594426e-04
1.44500000e+00	2.82669545e-03	1.43105568e-04
1.45000000e+00	2.93288473e-03	1.43562497e-04
1.45500000e+00	2.92962789e-03	1.28865703e-04
1.46000000e+00	2.92993109e-03	1.25824517e-04
1.46500000e+00	2.91675686e-03	1.23068543e-04
1.47000000e+00	2.91120026e-03	1.22543348e-04
1.47500000e+00	2.93494366e-03	1.19865822e-04
1.48000000e+00	2.91585832e-03	1.17862367e-04
1.48500000e+00	2.92781961e-03	1.18575462e-04
1.49000000e+00	2.94112295e-03	1.19276193e-04
1.49500000e+00	2.90920750e-03	1.15402220e-04
1.50000000e+00	2.91520097e-03	1.15187249e-04
1.50500000e+00	2.91866223e-03	1.15972163e-04
1.51000000e+00	2.93172634e-03	1.16736261e-04
1.51500000e+00	2.93923179e-03	1.15164012e-04
1.52000000e+00	2.94224063e-03	1.14850633e-04
1.52500000e+00	2.92922936e-03	1.14270226e-04
1.53000000e+00	2.94679617e-03	1.15571441e-04
1.53500000e+00	2.93010333e-03	1.11631932e-04
1.54000000e+00	2.92716275e-03	1.11363246e-04
1.54500000e+00	2.91889727e-03	1.10840988e-04
1.55000000e+00	2.90587173e-03	1.09939999e-04
1.55500000e+00	2.88488515e-03	1.06787836e-04
1.56000000e+00	2.88101170e-03	1.06933150e-04
1.56500000e+00	2.87630415e-03	1.06140166e-04
1.57000000e+00	2.82917661e-03	1.03678047e-04
1.57500000e+00	2.84932059e-03	1.02520354e-04
1.58000000e+00	2.83826700e-03	1.01899542e-04
1.58500000e+00	2.83540417e-03	1.01833557e-04
1.59000000e+00	2.81125902e-03	1.01142003e-04
1.59500000e+00	2.79893985e-03	9.86406760e-05
1.60000000e+00	2.80966385e-03	9.89793311e-05
1.60500000e+00	2.79143766e-03	9.83512421e-05
1.61000000e+00	2.80355987e-03	9.83733992e-05
1.61500000e+00	2.77642177e-03	9.65831990e-05
1.62000000e+00	2.76768399e-03	9.66712038e-05
1.62500000e+00	2.76316250e-03	9.76199293e-05
1.63000000e+00	2.77807494e-03	9.71005432e-05
1.63500000e+00	2.75409656e-03	9.62169707e-05
1.64000000e+00	2.75043595e-03	9.61955137e-05
1.64500000e+00	2.73792635e-03	9.68140793e-05
1.65000000e+00	2.74679604e-03	9.60178446e-05
1.65500000e+00	2.73699536e-03	9.56149110e-05
1.66000000e+00	2.72587627e-03	9.53065383e-05
1.66500000e+00	2.69465087e-03	9.59021304e-05
1.67000000e+00	2.71617033e-03	9.46212862e-05
1.67500000e+00	2.72956075e-03	9.53116302e-05
1.68000000e+00	2.70938944e-03	9.48335381e-05
1.68500000e+00	2.69386941e-03	9.59154627e-05
1.69000000e+00	2.69767402e-03	9.41869482e-05
1.69500000e+00	2.69733045e-03	9.39918468e-05
1.70000000e+00	2.69018822e-03	9.48461056e-05
1.70500000e+00	2.67133687e-03	9.45881509e-05
1.71000000e+00	2.66086015e-03	9.30008362e-05
1.71500000e+00	2.65780752e-03	9.28057213e-05
1.72000000e+00	2.67149793e-03	9.40475918e-05
1.72500000e+00	2.65372415e-03	9.39350124e-05
1.73000000e+00	2.64288525e-03	9.23852173e-05
1.73500000e+00	2.63936878e-03	9.25015615e-05
1.74000000e+00	2.61991296e-03	9.19995772e-05
1.74500000e+00	2.64701277e-03	9.41295235e-05
1.75000000e+00	2.62056907e-03	9.13610501e-05
1.75500000e+00	2.60475534e-03	9.14162157e-05
1.76000000e+00	2.59848601e-03	9.12049111e-05
1.76500000e+00	2.60137076e-03	9.23977791e-05
1.77000000e+00	2.58179916e-03	9.01570143e-05
1.77500000e+00	2.58188830e-03	9.04168796e-05
1.78000000e+00	2.57575646e-03	9.05114935e-05
1.78500000e+00	2.57225630e-03	9.13025948e-05
1.79000000e+00	2.56179929e-03	8.93886041e-05
1.79500000e+00	2.58115894e-03	9.03952713e-05
1.80000000e+00	2.55679901e-03	9.00497587e-05
1.80500000e+00	2.53654366e-03	8.99458070e-05
1.81000000e+00	2.52963170e-03	8.84401511e-05
1.81500000e+00	2.54433232e-03	8.89578138e-05
1.82000000e+00	2.50685957e-03	8.82633799e-05
1.82500000e+00	2.50241088e-03	8.85634780e-05
1.83000000e+00	2.50771437e-03	8.77000918e-05
1.83500000e+00	2.51045631e-03	8.79076007e-05
1.84000000e+00	2.50098585e-03	8.80549981e-05
1.84500000e+00	2.49321080e-03	8.83397260e-05
1.85000000e+00	2.49417252e-03	8.72617412e-05
1.85500000e+00	2.48237355e-03	8.69541664e-05
1.86000000e+00	2.46485709e-03	8.69399632e-05
1.86500000e+00	2.45791030e-03	8.69473009e-05
1.87000000e+00	2.47702586e-03	8.66736824e-05
1.87500000e+00	2.46114701e-03	8.63333861e-05
1.88000000e+00	2.45383652e-03	8.64455214e-05
1.88500000e+00	2.44957197e-03	8.68725914e-05
1.89000000e+00	2.44077682e-03	8.53238924e-05
1.89500000e+00	2.41311700e-03	8.47979619e-05
1.90000000e+00	2.43795126e-03	8.59303061e-05
1.90500000e+00	2.40506345e-03	8.48152487e-05
1.91000000e+00	2.40443624e-03	8.42286720e-05
1.91500000e+00	2.38810977e-03	8.37619405e-05
1.92000000e+00	2.39080745e-03	8.43181844e-05
1.92500000e+00	2.37709989e-03	8.38712367e-05
1.93000000e+00	2.35730413e-03	8.25014103e-05
1.93500000e+00	2.36647096e-03	8.30809496e-05
1.94000000e+00	2.35263603e-03	8.31891732e-05
1.94500000e+00	2.35598104e-03	8.30402086e-05
1.95000000e+00	2.32708786e-03	8.13652460e-05
1.95500000e+00	2.32672400e-03	8.16811945e-05
1.96000000e+00	2.32247963e-03	8.19330218e-05
1.96500000e+00	2.32036327e-03	8.20100516e-05
1.97000000e+00	2.32518474e-03	8.11638725e-05
1.97500000e+00	2.29509088e-03	8.06379860e-05
1.98000000e+00	2.30737637e-03	8.14508592e-05
1.98500000e+00	2.28785257e-03	8.08962698e-05
1.99000000e+00	2.27854014e-03	7.95760115e-05
1.99500000e+00	2.26657430e-03	7.95006446e-05
2.00000000e+00	2.27493909e-03	8.03794012e-05
2.00500000e+00	2.28373888e-03	8.08427720e-05
2.01000000e+00	2.25644318e-03	8.75691486e-05
2.01500000e+00	2.22938046e-03	9.19230589e-05
2.02000000e+00	2.22768793e-03	9.78958229e-05
2.02500000e+00	2.22312292e-03	1.01625112e-04
2.03000000e+00	2.16930866e-03	1.05124390e-04
2.03500000e+00	2.20005983e-03	1.11207108e-04
2.04000000e+00	2.14473949e-03	1.13411293e-04
2.04500000e+00	2.15363118e-03	1.19612504e-04
2.05000000e+00	2.16034756e-03	1.26090396e-04
2.05500000e+00	2.17475320e-03	1.24431353e-04
2.06000000e+00	2.20839595e-03	1.09956063e-04
2.06500000e+00	2.15116563e-03	1.02355628e-04
2.07000000e+00	2.15437913e-03	9.70411814e-05
2.07500000e+00	2.13382630e-03	9.38598951e-05
2.08000000e+00	2.16089486e-03	9.49058350e-05
2.08500000e+00	2.14678633e-03	9.34664720e-05
2.09000000e+00	2.14970597e-03	9.07464514e-05
2.09500000e+00	2.14687782e-03	8.96418349e-05
2.10000000e+00	2.15793004e-03	8.95594869e-05
2.10500000e+00	2.13567194e-03	8.82548775e-05
2.11000000e+00	2.11978137e-03	8.44704233e-05
2.11500000e+00	2.09880070e-03	8.27764106e-05
2.12000000e+00	2.08239891e-03	8.18191780e-05
2.12500000e+00	2.07453408e-03	8.12079079e-05
2.13000000e+00	2.05258847e-03	7.71103426e-05
2.13500000e+00	2.04496525e-03	7.58995063e-05
2.14000000e+00	2.02440160e-03	7.44295445e-05
2.14500000e+00	2.01289638e-03	7.42049862e-05
2.15000000e+00	2.01207666e-03	7.17710672e-05
2.15500000e+00	2.00158112e-03	7.15207380e-05
2.16000000e+00	1.98182733e-03	7.04740271e-05
2.16500000e+00	1.97937824e-03	7.09039625e-05
2.17000000e+00	1.96131013e-03	6.85795745e-05
2.17500000e+00	1.96362486e-03	6.88083581e-05
2.18000000e+00	1.95083222e-03	6.86051276e-05
2.18500000e+00	1.94206677e-03	6.85268559e-05
2.19000000e+00	1.92440640e-03	6.77158163e-05
2.19500000e+00	1.91293828e-03	6.69876118e-05
2.20000000e+00	1.90772634e-03	6.70398867e-05
2.20500000e+00	1.90331955e-03	6.70091383e-05
2.21000000e+00	1.89845263e-03	6.71910747e-05
2.21500000e+00	1.86922202e-03	6.54130244e-05
2.22000000e+00	1.86819190e-03	6.52968614e-05
2.22500000e+00	1.86175182e-03	6.56766229e-05
2.23000000e+00	1.84896697e-03	6.55903083e-05
2.23500000e+00	1.81945932e-03	6.36376368e-05
2.24000000e+00	1.81913698e-03	6.37151138e-05
2.24500000e+00	1.82361205e-03	6.42543599e-05
2.25000000e+00	1.79419434e-03	6.37570949e-05
2.25500000e+00	1.79393410e-03	6.25683439e-05
2.26000000e+00	1.78425471e-03	6.25334166e-05
2.26500000e+00	1.76696819e-03	6.21263432e-05
2.27000000e+00	1.73487932e-03	6.18163181e-05
2.27500000e+00	1.73261329e-03	6.04797898e-05
2.28000000e+00	1.75038341e-03	6.11950661e-05
2.28500000e+00	1.71783487e-03	6.04623366e-05
2.29000000e+00	1.69454441e-03	5.98909647e-05
2.29500000e+00	1.68906186e-03	5.95941823e-05
2.30000000e+00	1.68131665e-03	5.86954424e-05
2.30500000e+00	1.69814658e-03	5.94616398e-05
2.31000000e+00	1.66053345e-03	5.85039436e-05
2.31500000e+00	1.64710740e-03	5.84293714e-05
2.32000000e+00	1.65834283e-03	5.76272111e-05
2.32500000e+00	1.64703808e-03	5.77483449e-05
2.33000000e+00	1.62804730e-03	5.72132688e-05
2.33500000e+00	1.63675406e-03	5.80871704e-05
2.34000000e+00	1.61943879e-03	5.65020522e-05
2.34500000e+00	1.60515914e-03	5.60259354e-05
2.35000000e+00	1.58691338e-03	5.56233090e-05
2.35500000e+00	1.58834337e-03	5.64264177e-05
2.36000000e+00	1.58316710e-03	5.54537953e-05
2.36500000e+00	1.55870610e-03	5.45487134e-05
2.37000000e+00	1.55551848e-03	5.44176005e-05
2.37500000e+00	1.53477601e-03	5.41828444e-05
2.38000000e+00	1.53663425e-03	5.45262955e-05
2.38500000e+00	1.51126412e-03	5.28139685e-05
2.39000000e+00	1.49793386e-03	5.25587784e-05
2.39500000e+00	1.50213194e-03	5.29715447e-05
2.40000000e+00	1.48930425e-03	5.33820512e-05
2.40500000e+00	1.48366255e-03	5.20404883e-05
2.41000000e+00	1.46531965e-03	5.15569336e-05
2.41500000e+00	1.47196471e-03	5.18259779e-05
2.42000000e+00	1.45062981e-03	5.18033047e-05
2.42500000e+00	1.45071146e-03	5.16307508e-05
2.43000000e+00	1.44310098e-03	5.08858483e-05
2.43500000e+00	1.42990216e-03	5.06792566e-05
2.44000000e+00	1.42715658e-03	5.06531388e-05
2.44500000e+00	1.41679925e-03	5.08614024e-05
2.45000000e+00	1.41568692e-03	4.99500267e-05
2.45500000e+00	1.39134736e-03	4.92613478e-05
2.46000000e+00	1.38114553e-03	4.91111681e-05
2.46500000e+00	1.37817158e-03	4.95570214e-05
2.47000000e+00	1.37640662e-03	4.90612058e-05
2.47500000e+00	1.36626533e-03	4.84071162e-05
2.48000000e+00	1.35814398e-03	4.86015644e-05
2.48500000e+00	1.34325779e-03	4.79556582e-05
2.49000000e+00	1.33360743e-03	4.82814809e-05
2.49500000e+00	1.32712007e-03	4.71406811e-05
2.50000000e+00	1.32840717e-03	4.72868736e-05
2.50500000e+00	1.30270741e-03	4.66977254e-05
2.51000000e+00	1.30158348e-03	4.69243215e-05
2.51500000e+00	1.31268332e-03	4.74347147e-05
2.52000000e+00	1.29893588e-03	4.64984881e-05
2.52500000e+00	1.28113573e-03	4.61001552e-05
2.53000000e+00	1.28412817e-03	4.66231665e-05
2.53500000e+00	1.27597199e-03	4.69435224e-05
2.54000000e+00	1.25734936e-03	4.55314888e-05
2.54500000e+00	1.25615267e-03	4.56039517e-05
2.55000000e+00	1.25935515e-03	4.59508439e-05
2.55500000e+00	1.24584184e-03	4.58557317e-05
2.56000000e+00	1.23817007e-03	4.58171522e-05
2.56500000e+00	1.23194656e-03	4.51181253e-05
2.57000000e+00	1.22595699e-03	4.51119907e-05
2.57500000e+00	1.20101988e-03	4.42984661e-05
2.58000000e+00	1.22103250e-03	4.58143010e-05
2.58500000e+00	1.21003195e-03	4.50780320e-05
2.59000000e+00	1.20522475e-03	4.46809582e-05
2.59500000e+00	1.18349142e-03	4.40787405e-05
2.60000000e+00	1.18310572e-03	4.44027637e-05
2.60500000e+00	1.21211431e-03	4.64633610e-05
2.61000000e+00	1.17639020e-03	5.13867574e-05
2.61500000e+00	1.14362932e-03	5.53486101e-05
2.62000000e+00	1.16944563e-03	6.19743867e-05
2.62500000e+00	1.16060080e-03	6.69228649e-05
2.63000000e+00	1.17128337e-03	7.49297583e-05
2.63500000e+00	1.14608066e-03	8.07321602e-05
2.64000000e+00	1.10340289e-03	8.56969903e-05
2.64500000e+00	1.16105920e-03	9.62376135e-05
2.65000000e+00	1.17792970e-03	1.03355556e-04
2.65500000e+00	1.13208479e-03	1.06836490e-04
2.66000000e+00	1.10851190e-03	1.12361116e-04
2.66500000e+00	1.08978390e-03	1.24070672e-04
2.67000000e+00	1.10645908e-03	1.36688664e-04
2.67500000e+00	1.09000317e-03	1.56672303e-04
2.68000000e+00	1.11332689e-03	1.85385911e-04
2.68500000e+00	1.04052229e-03	2.33321064e-04
2.69000000e+00	1.11828261e-03	4.00773956e-04
2.69500000e+00	0.00000000e+00	0.00000000e+00
2.70000000e+00	0.00000000e+00	0.00000000e+00
