% Filename : WDL3_p7_00007_00005.h5
% Date & Time : 30-Oct-2025 14:33:48
% X-ray Energy (keV) : 13.30001
% Exposure Time (s) : 0.500
% Photodiode Value : 133451.000
% I0 of Sample : 0
% I0 of Standard : 1
% 
% q(A^-1)   I(q)    I(q)_SE
8.40000000e-01	0.00000000e+00	0.00000000e+00
8.45000000e-01	4.49280787e-03	7.85106241e-04
8.50000000e-01	4.24934307e-03	3.93778226e-04
8.55000000e-01	4.15900673e-03	3.39301640e-04
8.60000000e-01	4.16047704e-03	2.93654464e-04
8.65000000e-01	4.16852610e-03	2.71198495e-04
8.70000000e-01	4.21374149e-03	2.61157112e-04
8.75000000e-01	4.21267581e-03	2.51221567e-04
8.80000000e-01	4.22319895e-03	2.43387642e-04
8.85000000e-01	4.24460568e-03	2.31506165e-04
8.90000000e-01	4.22276259e-03	2.25476528e-04
8.95000000e-01	4.25623371e-03	2.20617963e-04
9.00000000e-01	4.28618791e-03	2.20085437e-04
9.05000000e-01	4.27545224e-03	2.10071772e-04
9.10000000e-01	4.31315016e-03	2.07829100e-04
9.15000000e-01	4.28049843e-03	2.03047128e-04
9.20000000e-01	4.36982241e-03	2.07199696e-04
9.25000000e-01	4.31998375e-03	1.95708194e-04
9.30000000e-01	4.38751538e-03	1.96813663e-04
9.35000000e-01	4.37152756e-03	1.92292800e-04
9.40000000e-01	4.37411303e-03	1.93032152e-04
9.45000000e-01	4.44984858e-03	1.91361447e-04
9.50000000e-01	4.45349627e-03	1.88833347e-04
9.55000000e-01	4.43129437e-03	1.84597588e-04
9.60000000e-01	4.43817009e-03	1.84886883e-04
9.65000000e-01	4.45699115e-03	1.82513252e-04
9.70000000e-01	4.47813765e-03	1.80472073e-04
9.75000000e-01	4.47840359e-03	1.78618706e-04
9.80000000e-01	4.51463275e-03	1.78368961e-04
9.85000000e-01	4.54227936e-03	1.79645035e-04
9.90000000e-01	4.55293077e-03	1.74601306e-04
9.95000000e-01	4.55185522e-03	1.73607703e-04
1.00000000e+00	4.59705115e-03	1.74470986e-04
1.00500000e+00	4.54911414e-03	1.72637725e-04
1.01000000e+00	4.59581832e-03	1.70756885e-04
1.01500000e+00	4.64460650e-03	1.70830815e-04
1.02000000e+00	4.63764692e-03	1.70504881e-04
1.02500000e+00	4.61745212e-03	1.67575096e-04
1.03000000e+00	4.65182292e-03	1.68085071e-04
1.03500000e+00	4.68043501e-03	1.66709871e-04
1.04000000e+00	4.71973600e-03	1.67017350e-04
1.04500000e+00	4.67958073e-03	1.65608004e-04
1.05000000e+00	4.72384055e-03	1.65894634e-04
1.05500000e+00	4.70379107e-03	1.62548618e-04
1.06000000e+00	4.72899419e-03	1.63049349e-04
1.06500000e+00	4.78620954e-03	1.65181623e-04
1.07000000e+00	4.78662979e-03	1.64981264e-04
1.07500000e+00	4.82164756e-03	1.64948578e-04
1.08000000e+00	4.84641462e-03	1.64793584e-04
1.08500000e+00	4.87221672e-03	1.65816126e-04
1.09000000e+00	4.87089437e-03	1.66784880e-04
1.09500000e+00	4.91839770e-03	1.65037934e-04
1.10000000e+00	4.93377317e-03	1.66622595e-04
1.10500000e+00	4.97830258e-03	1.68686403e-04
1.11000000e+00	5.00810452e-03	1.69981158e-04
1.11500000e+00	5.02782764e-03	1.69470378e-04
1.12000000e+00	5.08465994e-03	1.72130560e-04
1.12500000e+00	5.07834727e-03	1.71573920e-04
1.13000000e+00	5.10978118e-03	1.74583562e-04
1.13500000e+00	5.14601240e-03	1.73733993e-04
1.14000000e+00	5.18415787e-03	1.74620768e-04
1.14500000e+00	5.20976789e-03	1.77021890e-04
1.15000000e+00	5.18773676e-03	1.77220034e-04
1.15500000e+00	5.23732111e-03	1.77093679e-04
1.16000000e+00	5.25930309e-03	1.78378276e-04
1.16500000e+00	5.28898297e-03	1.79128944e-04
1.17000000e+00	5.31712276e-03	1.82346669e-04
1.17500000e+00	5.35416986e-03	1.81054238e-04
1.18000000e+00	5.37469494e-03	1.82549535e-04
1.18500000e+00	5.41059503e-03	1.83607766e-04
1.19000000e+00	5.43088273e-03	1.86296670e-04
1.19500000e+00	5.50122642e-03	1.86474289e-04
1.20000000e+00	5.46859707e-03	1.86316720e-04
1.20500000e+00	5.48938967e-03	1.86722927e-04
1.21000000e+00	5.50592208e-03	1.89657602e-04
1.21500000e+00	5.56653188e-03	1.88865408e-04
1.22000000e+00	5.58005784e-03	1.89403747e-04
1.22500000e+00	5.57578209e-03	1.90079392e-04
1.23000000e+00	5.61905258e-03	1.92980149e-04
1.23500000e+00	5.64479955e-03	1.92647968e-04
1.24000000e+00	5.65702482e-03	1.92222823e-04
1.24500000e+00	5.69205508e-03	1.94771062e-04
1.25000000e+00	5.69534295e-03	1.96089506e-04
1.25500000e+00	5.69952271e-03	1.93917719e-04
1.26000000e+00	5.75384567e-03	1.96853693e-04
1.26500000e+00	5.82654416e-03	1.98636121e-04
1.27000000e+00	5.81774125e-03	2.01300063e-04
1.27500000e+00	5.82233980e-03	1.99441909e-04
1.28000000e+00	5.84176153e-03	1.98883054e-04
1.28500000e+00	5.85327552e-03	2.00417425e-04
1.29000000e+00	5.88059755e-03	2.03145419e-04
1.29500000e+00	5.88886815e-03	2.01274924e-04
1.30000000e+00	5.90801951e-03	2.01549870e-04
1.30500000e+00	5.91321429e-03	2.02691463e-04
1.31000000e+00	5.94519120e-03	2.06147027e-04
1.31500000e+00	5.97946217e-03	2.04828609e-04
1.32000000e+00	5.99977126e-03	2.05193582e-04
1.32500000e+00	6.02074367e-03	2.06556183e-04
1.33000000e+00	5.98310769e-03	2.07850761e-04
1.33500000e+00	6.04943027e-03	2.07224489e-04
1.34000000e+00	6.08033628e-03	2.08484639e-04
1.34500000e+00	6.10000292e-03	2.09873489e-04
1.35000000e+00	6.09339244e-03	2.11703551e-04
1.35500000e+00	6.08437539e-03	2.08527541e-04
1.36000000e+00	6.11860462e-03	2.09298703e-04
1.36500000e+00	6.12296358e-03	2.10163276e-04
1.37000000e+00	6.13348465e-03	2.13718800e-04
1.37500000e+00	6.17211608e-03	2.11719312e-04
1.38000000e+00	6.22422022e-03	2.14058204e-04
1.38500000e+00	6.23491046e-03	2.15581896e-04
1.39000000e+00	6.25051344e-03	2.17461336e-04
1.39500000e+00	6.23491899e-03	2.13789520e-04
1.40000000e+00	6.32044754e-03	2.23351841e-04
1.40500000e+00	6.29223462e-03	2.39125366e-04
1.41000000e+00	6.30847899e-03	2.51040454e-04
1.41500000e+00	6.30507179e-03	2.59961799e-04
1.42000000e+00	6.34474127e-03	2.72175257e-04
1.42500000e+00	6.29147110e-03	2.77899239e-04
1.43000000e+00	6.37208624e-03	2.92065270e-04
1.43500000e+00	6.37818051e-03	3.01235960e-04
1.44000000e+00	6.38961372e-03	3.13461173e-04
1.44500000e+00	6.40628571e-03	3.22480517e-04
1.45000000e+00	6.57528170e-03	3.20289987e-04
1.45500000e+00	6.67109237e-03	2.91893350e-04
1.46000000e+00	6.70219228e-03	2.86401456e-04
1.46500000e+00	6.72335370e-03	2.82192629e-04
1.47000000e+00	6.79529424e-03	2.84633547e-04
1.47500000e+00	6.91471188e-03	2.81326790e-04
1.48000000e+00	7.01232594e-03	2.82192362e-04
1.48500000e+00	7.16641434e-03	2.88789726e-04
1.49000000e+00	7.21096962e-03	2.91264927e-04
1.49500000e+00	7.43375096e-03	2.93715508e-04
1.50000000e+00	7.60634248e-03	2.99730031e-04
1.50500000e+00	7.76307966e-03	3.07483314e-04
1.51000000e+00	7.98683650e-03	3.17260021e-04
1.51500000e+00	8.35804956e-03	3.26929276e-04
1.52000000e+00	8.59513454e-03	3.35354982e-04
1.52500000e+00	8.23838141e-03	3.20692174e-04
1.53000000e+00	7.79700324e-03	3.05166991e-04
1.53500000e+00	7.50606286e-03	2.85249390e-04
1.54000000e+00	7.29319099e-03	2.76685299e-04
1.54500000e+00	7.14183201e-03	2.70322632e-04
1.55000000e+00	7.02530198e-03	2.65080004e-04
1.55500000e+00	6.99491232e-03	2.58084940e-04
1.56000000e+00	6.87028175e-03	2.53900318e-04
1.56500000e+00	6.80162876e-03	2.50085908e-04
1.57000000e+00	6.74341579e-03	2.46140676e-04
1.57500000e+00	6.73622417e-03	2.41278275e-04
1.58000000e+00	6.67515109e-03	2.38550734e-04
1.58500000e+00	6.65157401e-03	2.37767508e-04
1.59000000e+00	6.59906741e-03	2.36034749e-04
1.59500000e+00	6.56394354e-03	2.30306706e-04
1.60000000e+00	6.51649487e-03	2.28529081e-04
1.60500000e+00	6.48392154e-03	2.27574527e-04
1.61000000e+00	6.46903677e-03	2.25983527e-04
1.61500000e+00	6.42949313e-03	2.22686561e-04
1.62000000e+00	6.41462177e-03	2.23013365e-04
1.62500000e+00	6.37979348e-03	2.24400501e-04
1.63000000e+00	6.31802847e-03	2.19844982e-04
1.63500000e+00	6.29111396e-03	2.18871365e-04
1.64000000e+00	6.28111587e-03	2.18687237e-04
1.64500000e+00	6.24279825e-03	2.19703336e-04
1.65000000e+00	6.22509087e-03	2.16653387e-04
1.65500000e+00	6.19208778e-03	2.15305584e-04
1.66000000e+00	6.18044331e-03	2.15204059e-04
1.66500000e+00	6.15891333e-03	2.17953974e-04
1.67000000e+00	6.14161771e-03	2.12964263e-04
1.67500000e+00	6.15888839e-03	2.13993011e-04
1.68000000e+00	6.14157213e-03	2.14103891e-04
1.68500000e+00	6.10399864e-03	2.16307591e-04
1.69000000e+00	6.13131146e-03	2.13099511e-04
1.69500000e+00	6.08166228e-03	2.11033910e-04
1.70000000e+00	6.08982159e-03	2.13664560e-04
1.70500000e+00	6.06215186e-03	2.13665749e-04
1.71000000e+00	6.01557115e-03	2.09277110e-04
1.71500000e+00	5.94900333e-03	2.06947852e-04
1.72000000e+00	5.95445444e-03	2.08711045e-04
1.72500000e+00	5.91080007e-03	2.08377672e-04
1.73000000e+00	5.90239382e-03	2.05424036e-04
1.73500000e+00	5.92477224e-03	2.06751893e-04
1.74000000e+00	5.88602114e-03	2.05926222e-04
1.74500000e+00	5.89804784e-03	2.08837580e-04
1.75000000e+00	5.90159257e-03	2.04852233e-04
1.75500000e+00	5.91327872e-03	2.06676782e-04
1.76000000e+00	5.92173445e-03	2.06860670e-04
1.76500000e+00	5.93298866e-03	2.10003097e-04
1.77000000e+00	5.92977968e-03	2.06285562e-04
1.77500000e+00	5.94617751e-03	2.07490647e-04
1.78000000e+00	6.00192007e-03	2.10173907e-04
1.78500000e+00	6.05710260e-03	2.14362114e-04
1.79000000e+00	6.13991665e-03	2.13676984e-04
1.79500000e+00	6.13070151e-03	2.14135661e-04
1.80000000e+00	6.16153244e-03	2.16459619e-04
1.80500000e+00	6.15725667e-03	2.17821315e-04
1.81000000e+00	6.20857009e-03	2.16583837e-04
1.81500000e+00	6.24468347e-03	2.17927341e-04
1.82000000e+00	6.28894661e-03	2.21172560e-04
1.82500000e+00	6.36548379e-03	2.27654458e-04
1.83000000e+00	6.31064629e-03	2.20416200e-04
1.83500000e+00	6.30823371e-03	2.20705108e-04
1.84000000e+00	6.28139479e-03	2.20882535e-04
1.84500000e+00	6.28074024e-03	2.21974095e-04
1.85000000e+00	6.30189893e-03	2.20183423e-04
1.85500000e+00	6.24997288e-03	2.18418726e-04
1.86000000e+00	6.22112000e-03	2.18797279e-04
1.86500000e+00	6.16209753e-03	2.17186088e-04
1.87000000e+00	6.16685521e-03	2.14928158e-04
1.87500000e+00	6.07775250e-03	2.12302164e-04
1.88000000e+00	6.03580819e-03	2.11834477e-04
1.88500000e+00	6.00664701e-03	2.12028488e-04
1.89000000e+00	5.94085590e-03	2.06804741e-04
1.89500000e+00	5.91973671e-03	2.07144891e-04
1.90000000e+00	5.88257163e-03	2.06348680e-04
1.90500000e+00	5.84693910e-03	2.05288098e-04
1.91000000e+00	5.82141941e-03	2.02985185e-04
1.91500000e+00	5.79602963e-03	2.02289358e-04
1.92000000e+00	5.75904248e-03	2.02013801e-04
1.92500000e+00	5.73564530e-03	2.01461395e-04
1.93000000e+00	5.67671906e-03	1.97558889e-04
1.93500000e+00	5.68793719e-03	1.98544947e-04
1.94000000e+00	5.62481327e-03	1.98037619e-04
1.94500000e+00	5.62990026e-03	1.97483724e-04
1.95000000e+00	5.57583852e-03	1.93792245e-04
1.95500000e+00	5.56525030e-03	1.94268521e-04
1.96000000e+00	5.51549986e-03	1.93706402e-04
1.96500000e+00	5.48473135e-03	1.92712505e-04
1.97000000e+00	5.44990780e-03	1.89258241e-04
1.97500000e+00	5.44595662e-03	1.90423161e-04
1.98000000e+00	5.41862731e-03	1.90212802e-04
1.98500000e+00	5.38652052e-03	1.89465398e-04
1.99000000e+00	5.37333313e-03	1.86589609e-04
1.99500000e+00	5.40228654e-03	1.88525023e-04
2.00000000e+00	5.32231351e-03	1.86963707e-04
2.00500000e+00	5.35275540e-03	1.88426667e-04
2.01000000e+00	5.31910114e-03	2.05416649e-04
2.01500000e+00	5.24799934e-03	2.15141697e-04
2.02000000e+00	5.26116377e-03	2.30014634e-04
2.02500000e+00	5.22515820e-03	2.37285399e-04
2.03000000e+00	5.19287406e-03	2.49788913e-04
2.03500000e+00	5.15039122e-03	2.58678017e-04
2.04000000e+00	5.17525162e-03	2.71933550e-04
2.04500000e+00	5.10320556e-03	2.81878476e-04
2.05000000e+00	5.07966318e-03	2.94781737e-04
2.05500000e+00	5.20142302e-03	2.95723683e-04
2.06000000e+00	5.18107135e-03	2.56371175e-04
2.06500000e+00	5.11145589e-03	2.41574696e-04
2.07000000e+00	5.07603052e-03	2.27199626e-04
2.07500000e+00	5.03019115e-03	2.20141773e-04
2.08000000e+00	5.02028986e-03	2.19243744e-04
2.08500000e+00	5.00128668e-03	2.16718224e-04
2.09000000e+00	4.94727164e-03	2.08014676e-04
2.09500000e+00	4.92549170e-03	2.05078713e-04
2.10000000e+00	4.89673794e-03	2.02398343e-04
2.10500000e+00	4.86329283e-03	2.00401121e-04
2.11000000e+00	4.85652465e-03	1.92686151e-04
2.11500000e+00	4.81866266e-03	1.89382224e-04
2.12000000e+00	4.79064419e-03	1.87165575e-04
2.12500000e+00	4.77436426e-03	1.85994294e-04
2.13000000e+00	4.73436986e-03	1.76901976e-04
2.13500000e+00	4.70057127e-03	1.73470109e-04
2.14000000e+00	4.67701942e-03	1.71086189e-04
2.14500000e+00	4.59670016e-03	1.68382458e-04
2.15000000e+00	4.62226509e-03	1.63843577e-04
2.15500000e+00	4.60520099e-03	1.63531013e-04
2.16000000e+00	4.58514570e-03	1.62009120e-04
2.16500000e+00	4.56740023e-03	1.62515543e-04
2.17000000e+00	4.57449794e-03	1.58896276e-04
2.17500000e+00	4.49953570e-03	1.56647742e-04
2.18000000e+00	4.51902344e-03	1.57719800e-04
2.18500000e+00	4.50894296e-03	1.58133276e-04
2.19000000e+00	4.49274569e-03	1.57135608e-04
2.19500000e+00	4.48157538e-03	1.55926723e-04
2.20000000e+00	4.38461376e-03	1.52957176e-04
2.20500000e+00	4.40660512e-03	1.54169584e-04
2.21000000e+00	4.38553923e-03	1.54212570e-04
2.21500000e+00	4.37024148e-03	1.51973625e-04
2.22000000e+00	4.33270079e-03	1.50524680e-04
2.22500000e+00	4.30400278e-03	1.50725538e-04
2.23000000e+00	4.29616805e-03	1.51258746e-04
2.23500000e+00	4.28017677e-03	1.48601804e-04
2.24000000e+00	4.27225140e-03	1.48492966e-04
2.24500000e+00	4.24626318e-03	1.48548647e-04
2.25000000e+00	4.22050310e-03	1.48877997e-04
2.25500000e+00	4.18363249e-03	1.44962122e-04
2.26000000e+00	4.17158209e-03	1.45034821e-04
2.26500000e+00	4.13642150e-03	1.44363537e-04
2.27000000e+00	4.12552433e-03	1.46024661e-04
2.27500000e+00	4.09766168e-03	1.42167348e-04
2.28000000e+00	4.04941695e-03	1.40505840e-04
2.28500000e+00	4.01126003e-03	1.40130186e-04
2.29000000e+00	4.00774990e-03	1.40782929e-04
2.29500000e+00	3.96956133e-03	1.38940821e-04
2.30000000e+00	3.96798829e-03	1.37612568e-04
2.30500000e+00	3.99402202e-03	1.38858372e-04
2.31000000e+00	3.94973783e-03	1.38052644e-04
2.31500000e+00	3.93763945e-03	1.38752148e-04
2.32000000e+00	3.90388365e-03	1.34773904e-04
2.32500000e+00	3.88064380e-03	1.35128657e-04
2.33000000e+00	3.88262201e-03	1.35581957e-04
2.33500000e+00	3.83912829e-03	1.35603835e-04
2.34000000e+00	3.83786762e-03	1.33156166e-04
2.34500000e+00	3.80645358e-03	1.32228461e-04
2.35000000e+00	3.78562221e-03	1.32085502e-04
2.35500000e+00	3.77784078e-03	1.33554973e-04
2.36000000e+00	3.73854965e-03	1.30463541e-04
2.36500000e+00	3.72338104e-03	1.29690940e-04
2.37000000e+00	3.70166029e-03	1.29102302e-04
2.37500000e+00	3.69130602e-03	1.29816927e-04
2.38000000e+00	3.68677527e-03	1.30379923e-04
2.38500000e+00	3.65254293e-03	1.27330525e-04
2.39000000e+00	3.65451536e-03	1.27919847e-04
2.39500000e+00	3.62901526e-03	1.27671564e-04
2.40000000e+00	3.61462498e-03	1.28918614e-04
2.40500000e+00	3.58245629e-03	1.25395486e-04
2.41000000e+00	3.57408882e-03	1.25597111e-04
2.41500000e+00	3.53497209e-03	1.24224217e-04
2.42000000e+00	3.53018177e-03	1.25724834e-04
2.42500000e+00	3.50286520e-03	1.24650574e-04
2.43000000e+00	3.50040552e-03	1.23450569e-04
2.43500000e+00	3.49357943e-03	1.23616069e-04
2.44000000e+00	3.49159702e-03	1.23905821e-04
2.44500000e+00	3.49510892e-03	1.25623917e-04
2.45000000e+00	3.45867692e-03	1.22077901e-04
2.45500000e+00	3.43158957e-03	1.21544605e-04
2.46000000e+00	3.39453825e-03	1.20911631e-04
2.46500000e+00	3.36319927e-03	1.21214366e-04
2.47000000e+00	3.35869287e-03	1.20094543e-04
2.47500000e+00	3.34755299e-03	1.18946160e-04
2.48000000e+00	3.36391960e-03	1.20588381e-04
2.48500000e+00	3.34461765e-03	1.19982003e-04
2.49000000e+00	3.31239695e-03	1.20549742e-04
2.49500000e+00	3.31172178e-03	1.18201410e-04
2.50000000e+00	3.30418336e-03	1.18342629e-04
2.50500000e+00	3.26903624e-03	1.17786924e-04
2.51000000e+00	3.27449114e-03	1.18977899e-04
2.51500000e+00	3.30189948e-03	1.20010311e-04
2.52000000e+00	3.30593774e-03	1.19118174e-04
2.52500000e+00	3.26161457e-03	1.18163980e-04
2.53000000e+00	3.28224193e-03	1.20062815e-04
2.53500000e+00	3.26537089e-03	1.21248544e-04
2.54000000e+00	3.24952015e-03	1.18639860e-04
2.54500000e+00	3.22522608e-03	1.17955417e-04
2.55000000e+00	3.22275334e-03	1.18359354e-04
2.55500000e+00	3.20589201e-03	1.18814619e-04
2.56000000e+00	3.21540206e-03	1.19821831e-04
2.56500000e+00	3.20230355e-03	1.18027949e-04
2.57000000e+00	3.19595937e-03	1.18475967e-04
2.57500000e+00	3.17512031e-03	1.18223729e-04
2.58000000e+00	3.15854899e-03	1.19620805e-04
2.58500000e+00	3.15294097e-03	1.18362798e-04
2.59000000e+00	3.13895917e-03	1.17446376e-04
2.59500000e+00	3.13525941e-03	1.17860871e-04
2.60000000e+00	3.12307857e-03	1.18372011e-04
2.60500000e+00	3.14844102e-03	1.22019441e-04
2.61000000e+00	3.09930598e-03	1.37568482e-04
2.61500000e+00	3.03569420e-03	1.50624873e-04
2.62000000e+00	2.91113594e-03	1.60037681e-04
2.62500000e+00	2.85748613e-03	1.70846543e-04
2.63000000e+00	2.98199844e-03	1.94081093e-04
2.63500000e+00	3.16680438e-03	2.24140324e-04
2.64000000e+00	3.34055110e-03	2.57061092e-04
2.64500000e+00	3.30349574e-03	2.71232533e-04
2.65000000e+00	3.37142401e-03	2.92779228e-04
2.65500000e+00	3.34306427e-03	3.12259992e-04
2.66000000e+00	3.30598248e-03	3.31302508e-04
2.66500000e+00	3.35819360e-03	3.78517394e-04
2.67000000e+00	3.37646439e-03	4.11678899e-04
2.67500000e+00	3.30294186e-03	4.71398828e-04
2.68000000e+00	2.94537132e-03	4.96968766e-04
2.68500000e+00	2.08895069e-03	4.89608318e-04
2.69000000e+00	1.24757585e-03	4.57239269e-04
2.69500000e+00	0.00000000e+00	0.00000000e+00
2.70000000e+00	0.00000000e+00	0.00000000e+00
