% Filename : WDL3_p7_00019_00035.h5
% Date & Time : 30-Oct-2025 16:40:35
% X-ray Energy (keV) : 13.30001
% Exposure Time (s) : 0.500
% Photodiode Value : 141161.000
% I0 of Sample : 0
% I0 of Standard : 1
% 
% q(A^-1)   I(q)    I(q)_SE
8.40000000e-01	0.00000000e+00	0.00000000e+00
8.45000000e-01	2.99348725e-03	5.22554283e-04
8.50000000e-01	2.64269214e-03	2.45506194e-04
8.55000000e-01	2.58136553e-03	2.11034268e-04
8.60000000e-01	2.57253737e-03	1.82286420e-04
8.65000000e-01	2.59403884e-03	1.69093635e-04
8.70000000e-01	2.56868769e-03	1.59505244e-04
8.75000000e-01	2.56973856e-03	1.53675405e-04
8.80000000e-01	2.61860850e-03	1.51485378e-04
8.85000000e-01	2.61203969e-03	1.42765651e-04
8.90000000e-01	2.60505560e-03	1.39213641e-04
8.95000000e-01	2.60816355e-03	1.35739445e-04
9.00000000e-01	2.61509314e-03	1.34771886e-04
9.05000000e-01	2.64114559e-03	1.29998996e-04
9.10000000e-01	2.61344195e-03	1.26330001e-04
9.15000000e-01	2.64534749e-03	1.25868719e-04
9.20000000e-01	2.63969482e-03	1.25376354e-04
9.25000000e-01	2.67134501e-03	1.21420677e-04
9.30000000e-01	2.65637474e-03	1.19541330e-04
9.35000000e-01	2.67728682e-03	1.18142004e-04
9.40000000e-01	2.67236776e-03	1.18293623e-04
9.45000000e-01	2.69654155e-03	1.16355244e-04
9.50000000e-01	2.69172812e-03	1.14514226e-04
9.55000000e-01	2.72567763e-03	1.13926825e-04
9.60000000e-01	2.67422129e-03	1.11775875e-04
9.65000000e-01	2.69651158e-03	1.10767821e-04
9.70000000e-01	2.70570607e-03	1.09468893e-04
9.75000000e-01	2.69246506e-03	1.07786111e-04
9.80000000e-01	2.71217123e-03	1.07534260e-04
9.85000000e-01	2.72308935e-03	1.08189378e-04
9.90000000e-01	2.73302582e-03	1.05245670e-04
9.95000000e-01	2.71603425e-03	1.04080789e-04
1.00000000e+00	2.73382144e-03	1.04245915e-04
1.00500000e+00	2.71141661e-03	1.03444718e-04
1.01000000e+00	2.72100323e-03	1.01519566e-04
1.01500000e+00	2.73274649e-03	1.01061164e-04
1.02000000e+00	2.70754767e-03	1.00145274e-04
1.02500000e+00	2.68615150e-03	9.81416689e-05
1.03000000e+00	2.69168741e-03	9.80007493e-05
1.03500000e+00	2.71790535e-03	9.75384103e-05
1.04000000e+00	2.68807609e-03	9.57733998e-05
1.04500000e+00	2.68230990e-03	9.56930706e-05
1.05000000e+00	2.66999749e-03	9.47092851e-05
1.05500000e+00	2.68234173e-03	9.36122415e-05
1.06000000e+00	2.66821338e-03	9.29009889e-05
1.06500000e+00	2.65964418e-03	9.26103609e-05
1.07000000e+00	2.67833972e-03	9.31212221e-05
1.07500000e+00	2.68570081e-03	9.27880272e-05
1.08000000e+00	2.69571853e-03	9.25953167e-05
1.08500000e+00	2.71310541e-03	9.32271030e-05
1.09000000e+00	2.73307711e-03	9.44512527e-05
1.09500000e+00	2.71816819e-03	9.21418037e-05
1.10000000e+00	2.73857120e-03	9.34163014e-05
1.10500000e+00	2.72129240e-03	9.29583235e-05
1.11000000e+00	2.73848279e-03	9.37463552e-05
1.11500000e+00	2.75953098e-03	9.38024787e-05
1.12000000e+00	2.74507913e-03	9.36738219e-05
1.12500000e+00	2.75102242e-03	9.36233825e-05
1.13000000e+00	2.73796690e-03	9.43262433e-05
1.13500000e+00	2.77950861e-03	9.45527622e-05
1.14000000e+00	2.76921387e-03	9.40194828e-05
1.14500000e+00	2.79277364e-03	9.56007757e-05
1.15000000e+00	2.76449569e-03	9.51469011e-05
1.15500000e+00	2.82705286e-03	9.61528001e-05
1.16000000e+00	2.81253685e-03	9.60637135e-05
1.16500000e+00	2.81690151e-03	9.60990829e-05
1.17000000e+00	2.80577751e-03	9.69789243e-05
1.17500000e+00	2.80806891e-03	9.56250261e-05
1.18000000e+00	2.81034292e-03	9.60789229e-05
1.18500000e+00	2.83370740e-03	9.68189856e-05
1.19000000e+00	2.84615508e-03	9.82612376e-05
1.19500000e+00	2.83763904e-03	9.67826410e-05
1.20000000e+00	2.84157563e-03	9.73372386e-05
1.20500000e+00	2.82465864e-03	9.66762443e-05
1.21000000e+00	2.86326343e-03	9.92488110e-05
1.21500000e+00	2.85561679e-03	9.74086470e-05
1.22000000e+00	2.86389973e-03	9.78651220e-05
1.22500000e+00	2.87144459e-03	9.85927297e-05
1.23000000e+00	2.85325922e-03	9.86799054e-05
1.23500000e+00	2.85992604e-03	9.81568879e-05
1.24000000e+00	2.85600990e-03	9.74889843e-05
1.24500000e+00	2.85748399e-03	9.83195083e-05
1.25000000e+00	2.84496865e-03	9.85179837e-05
1.25500000e+00	2.86471886e-03	9.80997419e-05
1.26000000e+00	2.88457093e-03	9.92956397e-05
1.26500000e+00	2.87227777e-03	9.84581333e-05
1.27000000e+00	2.87771029e-03	1.00228974e-04
1.27500000e+00	2.90653799e-03	1.00155851e-04
1.28000000e+00	2.88595676e-03	9.88175689e-05
1.28500000e+00	2.87673501e-03	9.90730364e-05
1.29000000e+00	2.87321769e-03	9.98604663e-05
1.29500000e+00	2.88846776e-03	9.93172934e-05
1.30000000e+00	2.88496371e-03	9.90077919e-05
1.30500000e+00	2.87628727e-03	9.91927808e-05
1.31000000e+00	2.88201574e-03	1.00509924e-04
1.31500000e+00	2.86260785e-03	9.85524025e-05
1.32000000e+00	2.87328582e-03	9.88542587e-05
1.32500000e+00	2.87370734e-03	9.91164193e-05
1.33000000e+00	2.85943224e-03	9.97432832e-05
1.33500000e+00	2.88321655e-03	9.92400938e-05
1.34000000e+00	2.87576368e-03	9.91258492e-05
1.34500000e+00	2.88294879e-03	9.97091212e-05
1.35000000e+00	2.87065660e-03	1.00223316e-04
1.35500000e+00	2.86732830e-03	9.87607052e-05
1.36000000e+00	2.88504607e-03	9.92576546e-05
1.36500000e+00	2.88186097e-03	9.95346249e-05
1.37000000e+00	2.86686022e-03	1.00481495e-04
1.37500000e+00	2.86550907e-03	9.88419722e-05
1.38000000e+00	2.86758982e-03	9.91727701e-05
1.38500000e+00	2.88208702e-03	1.00180118e-04
1.39000000e+00	2.86657750e-03	1.00168345e-04
1.39500000e+00	2.85927137e-03	9.85753743e-05
1.40000000e+00	2.88273348e-03	1.02402669e-04
1.40500000e+00	2.84619123e-03	1.08748228e-04
1.41000000e+00	2.82586368e-03	1.12992312e-04
1.41500000e+00	2.80085515e-03	1.16160040e-04
1.42000000e+00	2.80366739e-03	1.20880350e-04
1.42500000e+00	2.78953784e-03	1.23893867e-04
1.43000000e+00	2.77399344e-03	1.27824121e-04
1.43500000e+00	2.76376938e-03	1.31353356e-04
1.44000000e+00	2.76446651e-03	1.36443303e-04
1.44500000e+00	2.75034427e-03	1.39300513e-04
1.45000000e+00	2.81667613e-03	1.37942700e-04
1.45500000e+00	2.81870693e-03	1.23973741e-04
1.46000000e+00	2.83462018e-03	1.21711743e-04
1.46500000e+00	2.84591360e-03	1.20021010e-04
1.47000000e+00	2.83018742e-03	1.19259492e-04
1.47500000e+00	2.81999537e-03	1.15210296e-04
1.48000000e+00	2.82299460e-03	1.14087459e-04
1.48500000e+00	2.83984871e-03	1.14893510e-04
1.49000000e+00	2.80727005e-03	1.13824850e-04
1.49500000e+00	2.80490675e-03	1.11283562e-04
1.50000000e+00	2.81876057e-03	1.11470031e-04
1.50500000e+00	2.83298530e-03	1.12585663e-04
1.51000000e+00	2.84475006e-03	1.13224375e-04
1.51500000e+00	2.81601870e-03	1.10406604e-04
1.52000000e+00	2.82282928e-03	1.10267783e-04
1.52500000e+00	2.84735484e-03	1.11107130e-04
1.53000000e+00	2.82625736e-03	1.10840621e-04
1.53500000e+00	2.81320697e-03	1.07283198e-04
1.54000000e+00	2.80200573e-03	1.06709472e-04
1.54500000e+00	2.82676938e-03	1.07365880e-04
1.55000000e+00	2.82086686e-03	1.06828149e-04
1.55500000e+00	2.80985305e-03	1.04046419e-04
1.56000000e+00	2.74674354e-03	1.01911834e-04
1.56500000e+00	2.77572077e-03	1.02452520e-04
1.57000000e+00	2.74309434e-03	1.00502952e-04
1.57500000e+00	2.72273310e-03	9.79721051e-05
1.58000000e+00	2.71409302e-03	9.74324436e-05
1.58500000e+00	2.70869389e-03	9.72809970e-05
1.59000000e+00	2.72405288e-03	9.79058995e-05
1.59500000e+00	2.71308432e-03	9.56455609e-05
1.60000000e+00	2.71575369e-03	9.56219989e-05
1.60500000e+00	2.68563354e-03	9.46893825e-05
1.61000000e+00	2.68618582e-03	9.42565373e-05
1.61500000e+00	2.71545316e-03	9.44616089e-05
1.62000000e+00	2.68027392e-03	9.35989247e-05
1.62500000e+00	2.68262671e-03	9.47760298e-05
1.63000000e+00	2.68981981e-03	9.40562755e-05
1.63500000e+00	2.67809847e-03	9.35911687e-05
1.64000000e+00	2.65151555e-03	9.27561554e-05
1.64500000e+00	2.66970103e-03	9.44393886e-05
1.65000000e+00	2.65201225e-03	9.26981843e-05
1.65500000e+00	2.64350265e-03	9.23243468e-05
1.66000000e+00	2.61973276e-03	9.16208265e-05
1.66500000e+00	2.62990727e-03	9.34803141e-05
1.67000000e+00	2.61085457e-03	9.09085609e-05
1.67500000e+00	2.60926768e-03	9.10909920e-05
1.68000000e+00	2.61556095e-03	9.16453363e-05
1.68500000e+00	2.61618895e-03	9.31946114e-05
1.69000000e+00	2.61307699e-03	9.12342673e-05
1.69500000e+00	2.56715947e-03	8.94378394e-05
1.70000000e+00	2.58544979e-03	9.11256134e-05
1.70500000e+00	2.59694853e-03	9.19030615e-05
1.71000000e+00	2.56483180e-03	8.96640539e-05
1.71500000e+00	2.56298968e-03	8.94753431e-05
1.72000000e+00	2.56092568e-03	9.02049476e-05
1.72500000e+00	2.54117548e-03	9.00098043e-05
1.73000000e+00	2.57270387e-03	8.99031402e-05
1.73500000e+00	2.54352671e-03	8.90758618e-05
1.74000000e+00	2.52920423e-03	8.88634786e-05
1.74500000e+00	2.52438819e-03	8.97936941e-05
1.75000000e+00	2.54163638e-03	8.86138607e-05
1.75500000e+00	2.51916775e-03	8.84166423e-05
1.76000000e+00	2.51533889e-03	8.82246575e-05
1.76500000e+00	2.51998341e-03	8.95839822e-05
1.77000000e+00	2.49912132e-03	8.73275368e-05
1.77500000e+00	2.49706687e-03	8.74855257e-05
1.78000000e+00	2.48957508e-03	8.75321943e-05
1.78500000e+00	2.45951315e-03	8.74001171e-05
1.79000000e+00	2.48216448e-03	8.66983065e-05
1.79500000e+00	2.47375740e-03	8.66617600e-05
1.80000000e+00	2.44902173e-03	8.63505820e-05
1.80500000e+00	2.45095875e-03	8.68560865e-05
1.81000000e+00	2.44943875e-03	8.56020089e-05
1.81500000e+00	2.43230503e-03	8.50528956e-05
1.82000000e+00	2.43152814e-03	8.55814422e-05
1.82500000e+00	2.43242357e-03	8.61314712e-05
1.83000000e+00	2.39400294e-03	8.36822933e-05
1.83500000e+00	2.41198013e-03	8.44792808e-05
1.84000000e+00	2.41071447e-03	8.49018507e-05
1.84500000e+00	2.39788578e-03	8.49239104e-05
1.85000000e+00	2.39020652e-03	8.36379240e-05
1.85500000e+00	2.39606639e-03	8.38997516e-05
1.86000000e+00	2.35950420e-03	8.32074151e-05
1.86500000e+00	2.35059266e-03	8.31258368e-05
1.87000000e+00	2.36495288e-03	8.27127260e-05
1.87500000e+00	2.35278606e-03	8.25423124e-05
1.88000000e+00	2.35324139e-03	8.29255209e-05
1.88500000e+00	2.36455161e-03	8.37496064e-05
1.89000000e+00	2.34310422e-03	8.19559584e-05
1.89500000e+00	2.33425452e-03	8.21106994e-05
1.90000000e+00	2.31354981e-03	8.15721086e-05
1.90500000e+00	2.31533383e-03	8.16611680e-05
1.91000000e+00	2.29998934e-03	8.05776556e-05
1.91500000e+00	2.30138529e-03	8.07109085e-05
1.92000000e+00	2.29655140e-03	8.10431811e-05
1.92500000e+00	2.29948928e-03	8.11919085e-05
1.93000000e+00	2.29514718e-03	8.02499569e-05
1.93500000e+00	2.28783294e-03	8.02972558e-05
1.94000000e+00	2.27673978e-03	8.04790795e-05
1.94500000e+00	2.27035419e-03	8.00964477e-05
1.95000000e+00	2.24833464e-03	7.86430990e-05
1.95500000e+00	2.24521154e-03	7.87826311e-05
1.96000000e+00	2.22804310e-03	7.87187591e-05
1.96500000e+00	2.22752488e-03	7.87362789e-05
1.97000000e+00	2.24335126e-03	7.83419712e-05
1.97500000e+00	2.22579083e-03	7.81848665e-05
1.98000000e+00	2.21555326e-03	7.81767946e-05
1.98500000e+00	2.22045130e-03	7.85239272e-05
1.99000000e+00	2.20602481e-03	7.70416848e-05
1.99500000e+00	2.21035904e-03	7.75767291e-05
2.00000000e+00	2.17473548e-03	7.68029342e-05
2.00500000e+00	2.17924423e-03	7.70867470e-05
2.01000000e+00	2.19711023e-03	8.53784938e-05
2.01500000e+00	2.14406115e-03	8.85187181e-05
2.02000000e+00	2.14610120e-03	9.44926831e-05
2.02500000e+00	2.13817566e-03	9.77807736e-05
2.03000000e+00	2.11583442e-03	1.02497292e-04
2.03500000e+00	2.08467090e-03	1.05313866e-04
2.04000000e+00	2.06781903e-03	1.09366212e-04
2.04500000e+00	2.11127301e-03	1.17321953e-04
2.05000000e+00	2.03015395e-03	1.18718780e-04
2.05500000e+00	2.10219671e-03	1.20284586e-04
2.06000000e+00	2.09066308e-03	1.04064886e-04
2.06500000e+00	2.06469350e-03	9.81759411e-05
2.07000000e+00	2.08689800e-03	9.39780173e-05
2.07500000e+00	2.07952849e-03	9.15004335e-05
2.08000000e+00	2.07150580e-03	9.09556594e-05
2.08500000e+00	2.08217680e-03	9.06443628e-05
2.09000000e+00	2.06287706e-03	8.71595303e-05
2.09500000e+00	2.04278346e-03	8.54745382e-05
2.10000000e+00	2.05844516e-03	8.55065756e-05
2.10500000e+00	2.03662596e-03	8.42357862e-05
2.11000000e+00	2.02570623e-03	8.07074465e-05
2.11500000e+00	2.00401702e-03	7.90964833e-05
2.12000000e+00	2.01063379e-03	7.89980149e-05
2.12500000e+00	2.00696089e-03	7.85481132e-05
2.13000000e+00	1.99371732e-03	7.49430932e-05
2.13500000e+00	1.97791913e-03	7.34455318e-05
2.14000000e+00	1.93866150e-03	7.12789358e-05
2.14500000e+00	1.95715737e-03	7.22000719e-05
2.15000000e+00	1.93770002e-03	6.90969992e-05
2.15500000e+00	1.93704284e-03	6.92128799e-05
2.16000000e+00	1.90041834e-03	6.75258874e-05
2.16500000e+00	1.91326364e-03	6.85195344e-05
2.17000000e+00	1.89657923e-03	6.63155422e-05
2.17500000e+00	1.88149665e-03	6.59830137e-05
2.18000000e+00	1.87127580e-03	6.57431106e-05
2.18500000e+00	1.86412363e-03	6.58720174e-05
2.19000000e+00	1.86200033e-03	6.55073902e-05
2.19500000e+00	1.83959285e-03	6.44291474e-05
2.20000000e+00	1.85867794e-03	6.52089246e-05
2.20500000e+00	1.82917472e-03	6.44037506e-05
2.21000000e+00	1.81758862e-03	6.43922616e-05
2.21500000e+00	1.82138543e-03	6.37488963e-05
2.22000000e+00	1.80402888e-03	6.31352173e-05
2.22500000e+00	1.80058360e-03	6.34763462e-05
2.23000000e+00	1.77852554e-03	6.30282679e-05
2.23500000e+00	1.75087595e-03	6.12217912e-05
2.24000000e+00	1.75597966e-03	6.14603350e-05
2.24500000e+00	1.75564841e-03	6.18912104e-05
2.25000000e+00	1.73111014e-03	6.15429132e-05
2.25500000e+00	1.74287660e-03	6.08284944e-05
2.26000000e+00	1.71200545e-03	5.99728939e-05
2.26500000e+00	1.69153722e-03	5.95181134e-05
2.27000000e+00	1.70521529e-03	6.07817619e-05
2.27500000e+00	1.68078352e-03	5.86923294e-05
2.28000000e+00	1.68285911e-03	5.88510442e-05
2.28500000e+00	1.66868541e-03	5.87265569e-05
2.29000000e+00	1.66547238e-03	5.89701595e-05
2.29500000e+00	1.64158903e-03	5.79875962e-05
2.30000000e+00	1.62804045e-03	5.68624306e-05
2.30500000e+00	1.63522595e-03	5.72543699e-05
2.31000000e+00	1.60039544e-03	5.63085248e-05
2.31500000e+00	1.59980651e-03	5.67216313e-05
2.32000000e+00	1.59468609e-03	5.55316996e-05
2.32500000e+00	1.58871216e-03	5.57830783e-05
2.33000000e+00	1.57632364e-03	5.53975261e-05
2.33500000e+00	1.57126816e-03	5.57611098e-05
2.34000000e+00	1.55275632e-03	5.41432632e-05
2.34500000e+00	1.55548488e-03	5.42931938e-05
2.35000000e+00	1.55733161e-03	5.45507527e-05
2.35500000e+00	1.52121432e-03	5.40767605e-05
2.36000000e+00	1.52200619e-03	5.33511388e-05
2.36500000e+00	1.51398556e-03	5.29843467e-05
2.37000000e+00	1.50187208e-03	5.25252900e-05
2.37500000e+00	1.47651637e-03	5.21286759e-05
2.38000000e+00	1.47420260e-03	5.23751263e-05
2.38500000e+00	1.47808168e-03	5.17110716e-05
2.39000000e+00	1.47142565e-03	5.16156861e-05
2.39500000e+00	1.47871567e-03	5.21168188e-05
2.40000000e+00	1.45027018e-03	5.18750858e-05
2.40500000e+00	1.44082740e-03	5.04712221e-05
2.41000000e+00	1.42169565e-03	5.00110099e-05
2.41500000e+00	1.42720869e-03	5.02290969e-05
2.42000000e+00	1.41240803e-03	5.03741431e-05
2.42500000e+00	1.40233885e-03	4.99682017e-05
2.43000000e+00	1.39334779e-03	4.91601968e-05
2.43500000e+00	1.40171418e-03	4.95925349e-05
2.44000000e+00	1.38472880e-03	4.90974127e-05
2.44500000e+00	1.35100062e-03	4.85312540e-05
2.45000000e+00	1.38574682e-03	4.89229582e-05
2.45500000e+00	1.36253118e-03	4.82232239e-05
2.46000000e+00	1.33908544e-03	4.76150858e-05
2.46500000e+00	1.34165732e-03	4.83201149e-05
2.47000000e+00	1.32837683e-03	4.73816132e-05
2.47500000e+00	1.31634904e-03	4.66636163e-05
2.48000000e+00	1.32311370e-03	4.73164853e-05
2.48500000e+00	1.30147516e-03	4.64420434e-05
2.49000000e+00	1.31562987e-03	4.76765609e-05
2.49500000e+00	1.28846415e-03	4.57910753e-05
2.50000000e+00	1.28913988e-03	4.59153418e-05
2.50500000e+00	1.27475410e-03	4.57289953e-05
2.51000000e+00	1.26887148e-03	4.57417342e-05
2.51500000e+00	1.25516486e-03	4.54146403e-05
2.52000000e+00	1.25655514e-03	4.50147678e-05
2.52500000e+00	1.24832533e-03	4.48883032e-05
2.53000000e+00	1.22878173e-03	4.46493241e-05
2.53500000e+00	1.23457740e-03	4.54023146e-05
2.54000000e+00	1.22278773e-03	4.41959584e-05
2.54500000e+00	1.23054573e-03	4.46412415e-05
2.55000000e+00	1.23233535e-03	4.49402232e-05
2.55500000e+00	1.20344038e-03	4.42628642e-05
2.56000000e+00	1.20885521e-03	4.47133228e-05
2.56500000e+00	1.20716693e-03	4.42533093e-05
2.57000000e+00	1.18617945e-03	4.37094943e-05
2.57500000e+00	1.17920521e-03	4.35433329e-05
2.58000000e+00	1.18511065e-03	4.44767768e-05
2.58500000e+00	1.16990015e-03	4.35853217e-05
2.59000000e+00	1.16580704e-03	4.32799028e-05
2.59500000e+00	1.15364198e-03	4.29595856e-05
2.60000000e+00	1.14813461e-03	4.30646624e-05
2.60500000e+00	1.15989948e-03	4.45320550e-05
2.61000000e+00	1.15468798e-03	5.04509004e-05
2.61500000e+00	1.12269796e-03	5.42474500e-05
2.62000000e+00	1.11978496e-03	5.96047777e-05
2.62500000e+00	1.10199999e-03	6.33518164e-05
2.63000000e+00	1.13145487e-03	7.17423310e-05
2.63500000e+00	1.09796615e-03	7.74680924e-05
2.64000000e+00	1.11869755e-03	8.69142225e-05
2.64500000e+00	1.09942631e-03	9.11412160e-05
2.65000000e+00	1.10744398e-03	9.76495642e-05
2.65500000e+00	1.10292796e-03	1.04453940e-04
2.66000000e+00	1.06298319e-03	1.07705534e-04
2.66500000e+00	1.10960562e-03	1.26099062e-04
2.67000000e+00	1.13090198e-03	1.38719042e-04
2.67500000e+00	1.10706851e-03	1.59025871e-04
2.68000000e+00	1.06096750e-03	1.78357788e-04
2.68500000e+00	1.15121464e-03	2.56391354e-04
2.69000000e+00	1.07453488e-03	3.82096595e-04
2.69500000e+00	0.00000000e+00	0.00000000e+00
2.70000000e+00	0.00000000e+00	0.00000000e+00
