% Filename : WDL3_00006_00008.h5
% Date & Time : 30-Oct-2025 14:30:31
% X-ray Energy (keV) : 13.30001
% Exposure Time (s) : 0.500
% Photodiode Value : 134766.000
% I0 of Sample : 0
% I0 of Standard : 1
% 
% q(A^-1)   I(q)    I(q)_SE
8.40000000e-01	0.00000000e+00	0.00000000e+00
8.45000000e-01	2.84450622e-03	4.98689031e-04
8.50000000e-01	2.64743367e-03	2.45727437e-04
8.55000000e-01	2.62200994e-03	2.14357925e-04
8.60000000e-01	2.62821487e-03	1.85986242e-04
8.65000000e-01	2.64187420e-03	1.72198388e-04
8.70000000e-01	2.62789568e-03	1.63386962e-04
8.75000000e-01	2.58778328e-03	1.54946724e-04
8.80000000e-01	2.64445049e-03	1.52902759e-04
8.85000000e-01	2.68705622e-03	1.46983346e-04
8.90000000e-01	2.65920657e-03	1.42271923e-04
8.95000000e-01	2.64913189e-03	1.37765297e-04
9.00000000e-01	2.67463189e-03	1.37815821e-04
9.05000000e-01	2.63780025e-03	1.30015156e-04
9.10000000e-01	2.65625769e-03	1.28286864e-04
9.15000000e-01	2.66262544e-03	1.26729777e-04
9.20000000e-01	2.66625739e-03	1.26780300e-04
9.25000000e-01	2.70277893e-03	1.22810114e-04
9.30000000e-01	2.70131101e-03	1.21596353e-04
9.35000000e-01	2.68096931e-03	1.18365815e-04
9.40000000e-01	2.70460378e-03	1.19765082e-04
9.45000000e-01	2.70052590e-03	1.16549395e-04
9.50000000e-01	2.69774262e-03	1.14805853e-04
9.55000000e-01	2.72155275e-03	1.13681124e-04
9.60000000e-01	2.72826956e-03	1.14040534e-04
9.65000000e-01	2.71552236e-03	1.11715160e-04
9.70000000e-01	2.74399779e-03	1.11029109e-04
9.75000000e-01	2.73550674e-03	1.09533051e-04
9.80000000e-01	2.73240492e-03	1.08347315e-04
9.85000000e-01	2.74736934e-03	1.09108083e-04
9.90000000e-01	2.72808360e-03	1.05220285e-04
9.95000000e-01	2.74960605e-03	1.05403811e-04
1.00000000e+00	2.77392592e-03	1.05795239e-04
1.00500000e+00	2.72741722e-03	1.04076721e-04
1.01000000e+00	2.77079795e-03	1.03501212e-04
1.01500000e+00	2.73714176e-03	1.01215130e-04
1.02000000e+00	2.74595802e-03	1.01513253e-04
1.02500000e+00	2.74782178e-03	1.00410627e-04
1.03000000e+00	2.72191996e-03	9.89906253e-05
1.03500000e+00	2.74681912e-03	9.86344292e-05
1.04000000e+00	2.72773464e-03	9.73290749e-05
1.04500000e+00	2.72226077e-03	9.73147356e-05
1.05000000e+00	2.71629642e-03	9.63713256e-05
1.05500000e+00	2.69619400e-03	9.41457168e-05
1.06000000e+00	2.71111816e-03	9.44730580e-05
1.06500000e+00	2.72526514e-03	9.50344934e-05
1.07000000e+00	2.72910494e-03	9.50768655e-05
1.07500000e+00	2.73615754e-03	9.46745174e-05
1.08000000e+00	2.75415953e-03	9.46198936e-05
1.08500000e+00	2.75159435e-03	9.47234968e-05
1.09000000e+00	2.74326358e-03	9.48078096e-05
1.09500000e+00	2.74972548e-03	9.32589563e-05
1.10000000e+00	2.76397820e-03	9.41902559e-05
1.10500000e+00	2.78259188e-03	9.52559800e-05
1.11000000e+00	2.76205460e-03	9.46342232e-05
1.11500000e+00	2.78226106e-03	9.45909830e-05
1.12000000e+00	2.82529151e-03	9.64248152e-05
1.12500000e+00	2.80860451e-03	9.56895823e-05
1.13000000e+00	2.81921295e-03	9.71165549e-05
1.13500000e+00	2.83182858e-03	9.63370538e-05
1.14000000e+00	2.83817932e-03	9.65153007e-05
1.14500000e+00	2.84532380e-03	9.74688880e-05
1.15000000e+00	2.83099742e-03	9.74160047e-05
1.15500000e+00	2.85338472e-03	9.71507918e-05
1.16000000e+00	2.85380133e-03	9.75523309e-05
1.16500000e+00	2.87891905e-03	9.83657128e-05
1.17000000e+00	2.85345600e-03	9.87087375e-05
1.17500000e+00	2.88291696e-03	9.82556654e-05
1.18000000e+00	2.87783981e-03	9.84741815e-05
1.18500000e+00	2.87003719e-03	9.80637476e-05
1.19000000e+00	2.86642797e-03	9.90590559e-05
1.19500000e+00	2.87827758e-03	9.82780318e-05
1.20000000e+00	2.89267724e-03	9.91743661e-05
1.20500000e+00	2.88409236e-03	9.88587121e-05
1.21000000e+00	2.87195449e-03	9.96066254e-05
1.21500000e+00	2.90579239e-03	9.92894318e-05
1.22000000e+00	2.90020851e-03	9.91392011e-05
1.22500000e+00	2.89667146e-03	9.93349408e-05
1.23000000e+00	2.91582352e-03	1.00909576e-04
1.23500000e+00	2.91740321e-03	1.00133033e-04
1.24000000e+00	2.92334033e-03	9.99762045e-05
1.24500000e+00	2.91012259e-03	1.00174682e-04
1.25000000e+00	2.92420996e-03	1.01338711e-04
1.25500000e+00	2.91947725e-03	9.99528209e-05
1.26000000e+00	2.91721358e-03	1.00436457e-04
1.26500000e+00	2.93233887e-03	1.00563939e-04
1.27000000e+00	2.92267323e-03	1.01760649e-04
1.27500000e+00	2.94646519e-03	1.01557914e-04
1.28000000e+00	2.92335645e-03	1.00080447e-04
1.28500000e+00	2.90981709e-03	1.00170882e-04
1.29000000e+00	2.91088168e-03	1.01153292e-04
1.29500000e+00	2.91566955e-03	1.00319374e-04
1.30000000e+00	2.93445869e-03	1.00649624e-04
1.30500000e+00	2.92726499e-03	1.00903669e-04
1.31000000e+00	2.93041384e-03	1.02258881e-04
1.31500000e+00	2.94363634e-03	1.01339567e-04
1.32000000e+00	2.92306654e-03	1.00566733e-04
1.32500000e+00	2.92487109e-03	1.00949255e-04
1.33000000e+00	2.92564091e-03	1.02167386e-04
1.33500000e+00	2.93144392e-03	1.00896141e-04
1.34000000e+00	2.91625042e-03	1.00531658e-04
1.34500000e+00	2.93829787e-03	1.01663458e-04
1.35000000e+00	2.92449190e-03	1.02113136e-04
1.35500000e+00	2.94667195e-03	1.01474715e-04
1.36000000e+00	2.93293204e-03	1.00852717e-04
1.36500000e+00	2.92836793e-03	1.01096583e-04
1.37000000e+00	2.93581670e-03	1.02894482e-04
1.37500000e+00	2.90892278e-03	1.00408316e-04
1.38000000e+00	2.93030194e-03	1.01320601e-04
1.38500000e+00	2.90425040e-03	1.00912497e-04
1.39000000e+00	2.93660563e-03	1.02708224e-04
1.39500000e+00	2.91268441e-03	1.00385526e-04
1.40000000e+00	2.94844807e-03	1.04661706e-04
1.40500000e+00	2.90617998e-03	1.11118225e-04
1.41000000e+00	2.89181471e-03	1.15726936e-04
1.41500000e+00	2.86708487e-03	1.18854678e-04
1.42000000e+00	2.86247122e-03	1.23589945e-04
1.42500000e+00	2.83065010e-03	1.25727710e-04
1.43000000e+00	2.85873030e-03	1.31735417e-04
1.43500000e+00	2.82392185e-03	1.34152677e-04
1.44000000e+00	2.78180905e-03	1.37405705e-04
1.44500000e+00	2.78470639e-03	1.41040581e-04
1.45000000e+00	2.87275140e-03	1.40991619e-04
1.45500000e+00	2.86416619e-03	1.26074890e-04
1.46000000e+00	2.86053432e-03	1.22851497e-04
1.46500000e+00	2.89507901e-03	1.22155864e-04
1.47000000e+00	2.87091428e-03	1.20922869e-04
1.47500000e+00	2.85743926e-03	1.16910072e-04
1.48000000e+00	2.85745817e-03	1.15753034e-04
1.48500000e+00	2.90212929e-03	1.17458864e-04
1.49000000e+00	2.86072898e-03	1.15991616e-04
1.49500000e+00	2.87431442e-03	1.14019591e-04
1.50000000e+00	2.87881460e-03	1.13885543e-04
1.50500000e+00	2.89085102e-03	1.14887455e-04
1.51000000e+00	2.87808030e-03	1.14818992e-04
1.51500000e+00	2.89987422e-03	1.13608288e-04
1.52000000e+00	2.89289431e-03	1.12888308e-04
1.52500000e+00	2.90808207e-03	1.13508065e-04
1.53000000e+00	2.88716648e-03	1.13261591e-04
1.53500000e+00	2.90261867e-03	1.10696219e-04
1.54000000e+00	2.87333798e-03	1.09433626e-04
1.54500000e+00	2.86596574e-03	1.08856407e-04
1.55000000e+00	2.87594591e-03	1.08918274e-04
1.55500000e+00	2.83487665e-03	1.04974629e-04
1.56000000e+00	2.81614126e-03	1.04442678e-04
1.56500000e+00	2.82882076e-03	1.04439545e-04
1.57000000e+00	2.81957308e-03	1.03383369e-04
1.57500000e+00	2.79087166e-03	1.00481689e-04
1.58000000e+00	2.77880094e-03	9.97508901e-05
1.58500000e+00	2.78811862e-03	1.00164125e-04
1.59000000e+00	2.75987522e-03	9.92538122e-05
1.59500000e+00	2.74250535e-03	9.66332275e-05
1.60000000e+00	2.76262413e-03	9.73281226e-05
1.60500000e+00	2.74393256e-03	9.67862205e-05
1.61000000e+00	2.73649105e-03	9.60938161e-05
1.61500000e+00	2.71770415e-03	9.46170790e-05
1.62000000e+00	2.74056267e-03	9.57938514e-05
1.62500000e+00	2.73066111e-03	9.65573188e-05
1.63000000e+00	2.72472456e-03	9.51610626e-05
1.63500000e+00	2.72190525e-03	9.50758807e-05
1.64000000e+00	2.71040133e-03	9.48424720e-05
1.64500000e+00	2.72847426e-03	9.63722010e-05
1.65000000e+00	2.69037890e-03	9.40759135e-05
1.65500000e+00	2.68669457e-03	9.38670050e-05
1.66000000e+00	2.65144540e-03	9.27560091e-05
1.66500000e+00	2.67290435e-03	9.50569917e-05
1.67000000e+00	2.67372170e-03	9.31543101e-05
1.67500000e+00	2.66964807e-03	9.31823752e-05
1.68000000e+00	2.63625749e-03	9.23025141e-05
1.68500000e+00	2.63002262e-03	9.36360781e-05
1.69000000e+00	2.65602352e-03	9.27985989e-05
1.69500000e+00	2.63682215e-03	9.18766915e-05
1.70000000e+00	2.63785530e-03	9.30709696e-05
1.70500000e+00	2.62341036e-03	9.28629504e-05
1.71000000e+00	2.62183381e-03	9.16429493e-05
1.71500000e+00	2.62994269e-03	9.19272858e-05
1.72000000e+00	2.62145667e-03	9.23040170e-05
1.72500000e+00	2.60491331e-03	9.23106997e-05
1.73000000e+00	2.60756556e-03	9.11167161e-05
1.73500000e+00	2.58826663e-03	9.08073845e-05
1.74000000e+00	2.59610789e-03	9.13647473e-05
1.74500000e+00	2.59814133e-03	9.23853147e-05
1.75000000e+00	2.57045858e-03	8.96866478e-05
1.75500000e+00	2.58069732e-03	9.05864464e-05
1.76000000e+00	2.56060166e-03	8.99036684e-05
1.76500000e+00	2.54969185e-03	9.06309714e-05
1.77000000e+00	2.53929251e-03	8.87391515e-05
1.77500000e+00	2.53812597e-03	8.89144521e-05
1.78000000e+00	2.52030424e-03	8.86022674e-05
1.78500000e+00	2.52898518e-03	8.98443735e-05
1.79000000e+00	2.53076594e-03	8.84291244e-05
1.79500000e+00	2.50661454e-03	8.78556019e-05
1.80000000e+00	2.52396122e-03	8.88503514e-05
1.80500000e+00	2.48966406e-03	8.82935388e-05
1.81000000e+00	2.49463111e-03	8.72031492e-05
1.81500000e+00	2.48733744e-03	8.69995007e-05
1.82000000e+00	2.47941958e-03	8.73177985e-05
1.82500000e+00	2.47714089e-03	8.77146908e-05
1.83000000e+00	2.48714666e-03	8.70329763e-05
1.83500000e+00	2.45956832e-03	8.62035372e-05
1.84000000e+00	2.47033239e-03	8.70476259e-05
1.84500000e+00	2.44715284e-03	8.67374093e-05
1.85000000e+00	2.46516473e-03	8.63600281e-05
1.85500000e+00	2.42944058e-03	8.51237444e-05
1.86000000e+00	2.42845544e-03	8.57101492e-05
1.86500000e+00	2.40933715e-03	8.52358125e-05
1.87000000e+00	2.41705445e-03	8.45282420e-05
1.87500000e+00	2.39465592e-03	8.40753168e-05
1.88000000e+00	2.39986281e-03	8.45772860e-05
1.88500000e+00	2.40765251e-03	8.53625934e-05
1.89000000e+00	2.40422517e-03	8.40462538e-05
1.89500000e+00	2.35730294e-03	8.29134992e-05
1.90000000e+00	2.36284616e-03	8.33133455e-05
1.90500000e+00	2.35790588e-03	8.32750280e-05
1.91000000e+00	2.35179593e-03	8.24428332e-05
1.91500000e+00	2.34069340e-03	8.21045921e-05
1.92000000e+00	2.32497697e-03	8.20369640e-05
1.92500000e+00	2.31838501e-03	8.18782221e-05
1.93000000e+00	2.32899793e-03	8.14792701e-05
1.93500000e+00	2.28785544e-03	8.03297072e-05
1.94000000e+00	2.30894415e-03	8.17559675e-05
1.94500000e+00	2.31131649e-03	8.14608461e-05
1.95000000e+00	2.27825011e-03	7.96802620e-05
1.95500000e+00	2.26369707e-03	7.94965236e-05
1.96000000e+00	2.28152220e-03	8.05374516e-05
1.96500000e+00	2.26077052e-03	7.98624739e-05
1.97000000e+00	2.26908072e-03	7.92619946e-05
1.97500000e+00	2.24221810e-03	7.88422505e-05
1.98000000e+00	2.26003644e-03	7.98243426e-05
1.98500000e+00	2.24248856e-03	7.92607275e-05
1.99000000e+00	2.24971274e-03	7.85429834e-05
1.99500000e+00	2.22383555e-03	7.80259599e-05
2.00000000e+00	2.23215083e-03	7.88186283e-05
2.00500000e+00	2.24835626e-03	7.95994713e-05
2.01000000e+00	2.22549016e-03	8.64800768e-05
2.01500000e+00	2.17469542e-03	8.97321716e-05
2.02000000e+00	2.18248646e-03	9.59135147e-05
2.02500000e+00	2.19189219e-03	1.00176529e-04
2.03000000e+00	2.14651814e-03	1.03951509e-04
2.03500000e+00	2.13903100e-03	1.08158756e-04
2.04000000e+00	2.14028462e-03	1.13216880e-04
2.04500000e+00	2.11696597e-03	1.17628296e-04
2.05000000e+00	2.06235821e-03	1.20574056e-04
2.05500000e+00	2.10344586e-03	1.20236754e-04
2.06000000e+00	2.12423113e-03	1.05779592e-04
2.06500000e+00	2.12049195e-03	1.00969535e-04
2.07000000e+00	2.11074354e-03	9.50914664e-05
2.07500000e+00	2.09889350e-03	9.24208802e-05
2.08000000e+00	2.13972348e-03	9.40026972e-05
2.08500000e+00	2.10463107e-03	9.17019871e-05
2.09000000e+00	2.10423164e-03	8.89618257e-05
2.09500000e+00	2.08884375e-03	8.73742404e-05
2.10000000e+00	2.06997430e-03	8.59653971e-05
2.10500000e+00	2.05931266e-03	8.53222330e-05
2.11000000e+00	2.06529920e-03	8.23312491e-05
2.11500000e+00	2.05229955e-03	8.10688816e-05
2.12000000e+00	2.03793997e-03	8.00834994e-05
2.12500000e+00	2.03341176e-03	7.96083992e-05
2.13000000e+00	2.01849360e-03	7.59043148e-05
2.13500000e+00	1.99642173e-03	7.41058529e-05
2.14000000e+00	1.97772835e-03	7.28281389e-05
2.14500000e+00	1.98666195e-03	7.32397120e-05
2.15000000e+00	1.97727418e-03	7.05128464e-05
2.15500000e+00	1.93134846e-03	6.89880676e-05
2.16000000e+00	1.94605846e-03	6.92536485e-05
2.16500000e+00	1.94927732e-03	6.97847831e-05
2.17000000e+00	1.93161982e-03	6.75635406e-05
2.17500000e+00	1.93361325e-03	6.78023728e-05
2.18000000e+00	1.91638165e-03	6.73405838e-05
2.18500000e+00	1.90285354e-03	6.72385287e-05
2.19000000e+00	1.90091578e-03	6.69116926e-05
2.19500000e+00	1.87218265e-03	6.56166880e-05
2.20000000e+00	1.87831244e-03	6.60560335e-05
2.20500000e+00	1.84955269e-03	6.51568904e-05
2.21000000e+00	1.86117288e-03	6.58952401e-05
2.21500000e+00	1.84698405e-03	6.46292276e-05
2.22000000e+00	1.82992005e-03	6.39974755e-05
2.22500000e+00	1.83603934e-03	6.48344958e-05
2.23000000e+00	1.79513964e-03	6.37275878e-05
2.23500000e+00	1.80252278e-03	6.30124711e-05
2.24000000e+00	1.77154254e-03	6.20398261e-05
2.24500000e+00	1.77927234e-03	6.26740996e-05
2.25000000e+00	1.76446001e-03	6.27228294e-05
2.25500000e+00	1.75962725e-03	6.14020383e-05
2.26000000e+00	1.75366160e-03	6.14422907e-05
2.26500000e+00	1.73537866e-03	6.10150940e-05
2.27000000e+00	1.71873033e-03	6.13206777e-05
2.27500000e+00	1.71153005e-03	5.98147486e-05
2.28000000e+00	1.70525228e-03	5.96015143e-05
2.28500000e+00	1.70293452e-03	5.99535078e-05
2.29000000e+00	1.67236533e-03	5.92006473e-05
2.29500000e+00	1.65733929e-03	5.84872663e-05
2.30000000e+00	1.65709048e-03	5.79254472e-05
2.30500000e+00	1.64550817e-03	5.76572869e-05
2.31000000e+00	1.63511704e-03	5.75673157e-05
2.31500000e+00	1.63266735e-03	5.80007003e-05
2.32000000e+00	1.60995172e-03	5.60363508e-05
2.32500000e+00	1.58683573e-03	5.56830036e-05
2.33000000e+00	1.59222976e-03	5.60223003e-05
2.33500000e+00	1.58252337e-03	5.62857098e-05
2.34000000e+00	1.57733279e-03	5.50816580e-05
2.34500000e+00	1.56731284e-03	5.47881420e-05
2.35000000e+00	1.57055303e-03	5.50515463e-05
2.35500000e+00	1.54224726e-03	5.47906658e-05
2.36000000e+00	1.54175741e-03	5.40348929e-05
2.36500000e+00	1.53475398e-03	5.37284292e-05
2.37000000e+00	1.52456836e-03	5.34627882e-05
2.37500000e+00	1.51869307e-03	5.36096207e-05
2.38000000e+00	1.49846520e-03	5.31458539e-05
2.38500000e+00	1.49169102e-03	5.22640839e-05
2.39000000e+00	1.48256387e-03	5.20954925e-05
2.39500000e+00	1.48160306e-03	5.23465507e-05
2.40000000e+00	1.46851606e-03	5.25307330e-05
2.40500000e+00	1.45959266e-03	5.11690919e-05
2.41000000e+00	1.45118616e-03	5.11357881e-05
2.41500000e+00	1.44068955e-03	5.06979899e-05
2.42000000e+00	1.43104049e-03	5.11141593e-05
2.42500000e+00	1.43348844e-03	5.10598384e-05
2.43000000e+00	1.42159418e-03	5.01634630e-05
2.43500000e+00	1.41788574e-03	5.01784611e-05
2.44000000e+00	1.39123185e-03	4.93923919e-05
2.44500000e+00	1.39883739e-03	5.03317083e-05
2.45000000e+00	1.38570781e-03	4.89278140e-05
2.45500000e+00	1.37737037e-03	4.87834519e-05
2.46000000e+00	1.37417925e-03	4.88518862e-05
2.46500000e+00	1.35827849e-03	4.89309450e-05
2.47000000e+00	1.34688342e-03	4.80263132e-05
2.47500000e+00	1.32619900e-03	4.70601334e-05
2.48000000e+00	1.34804223e-03	4.81964680e-05
2.48500000e+00	1.31618664e-03	4.70822246e-05
2.49000000e+00	1.32937037e-03	4.81810533e-05
2.49500000e+00	1.31183611e-03	4.66189096e-05
2.50000000e+00	1.29293133e-03	4.61136590e-05
2.50500000e+00	1.28583142e-03	4.60886814e-05
2.51000000e+00	1.29864770e-03	4.69946507e-05
2.51500000e+00	1.26848101e-03	4.58658244e-05
2.52000000e+00	1.28129075e-03	4.58574867e-05
2.52500000e+00	1.26248945e-03	4.54841922e-05
2.53000000e+00	1.25905524e-03	4.57525192e-05
2.53500000e+00	1.25784391e-03	4.62439905e-05
2.54000000e+00	1.23768365e-03	4.47371068e-05
2.54500000e+00	1.24524789e-03	4.53072463e-05
2.55000000e+00	1.21740638e-03	4.44492415e-05
2.55500000e+00	1.20334583e-03	4.43126120e-05
2.56000000e+00	1.21986878e-03	4.50797429e-05
2.56500000e+00	1.20015131e-03	4.40290823e-05
2.57000000e+00	1.20735214e-03	4.44795359e-05
2.57500000e+00	1.18667642e-03	4.38714352e-05
2.58000000e+00	1.18857918e-03	4.45972180e-05
2.58500000e+00	1.19453262e-03	4.44733326e-05
2.59000000e+00	1.17586741e-03	4.35763695e-05
2.59500000e+00	1.15808742e-03	4.31256936e-05
2.60000000e+00	1.17637822e-03	4.41882600e-05
2.60500000e+00	1.16964806e-03	4.49318756e-05
2.61000000e+00	1.16875214e-03	5.11420993e-05
2.61500000e+00	1.14672951e-03	5.54701422e-05
2.62000000e+00	1.13047854e-03	6.02507595e-05
2.62500000e+00	1.13545750e-03	6.52711036e-05
2.63000000e+00	1.13404200e-03	7.21847642e-05
2.63500000e+00	1.12664325e-03	7.92854095e-05
2.64000000e+00	1.13143859e-03	8.81396607e-05
2.64500000e+00	1.14658679e-03	9.54182604e-05
2.65000000e+00	1.12143281e-03	9.86165845e-05
2.65500000e+00	1.11028577e-03	1.05226054e-04
2.66000000e+00	1.11792694e-03	1.13572396e-04
2.66500000e+00	1.09855367e-03	1.25641664e-04
2.67000000e+00	1.10531479e-03	1.35945547e-04
2.67500000e+00	1.07181928e-03	1.54880488e-04
2.68000000e+00	1.02771873e-03	1.72086463e-04
2.68500000e+00	1.13410388e-03	2.50562793e-04
2.69000000e+00	1.19883172e-03	4.27136412e-04
2.69500000e+00	0.00000000e+00	0.00000000e+00
2.70000000e+00	0.00000000e+00	0.00000000e+00
