% Filename : WDL3_p7_00019_00040.h5
% Date & Time : 30-Oct-2025 16:40:53
% X-ray Energy (keV) : 13.30001
% Exposure Time (s) : 0.500
% Photodiode Value : 141103.000
% I0 of Sample : 0
% I0 of Standard : 1
% 
% q(A^-1)   I(q)    I(q)_SE
8.40000000e-01	0.00000000e+00	0.00000000e+00
8.45000000e-01	2.80014690e-03	4.91339874e-04
8.50000000e-01	2.64817275e-03	2.45937801e-04
8.55000000e-01	2.60499723e-03	2.12957168e-04
8.60000000e-01	2.58126911e-03	1.82463542e-04
8.65000000e-01	2.56457282e-03	1.67197483e-04
8.70000000e-01	2.58261157e-03	1.60503974e-04
8.75000000e-01	2.62073743e-03	1.56758882e-04
8.80000000e-01	2.61508071e-03	1.51141199e-04
8.85000000e-01	2.60134145e-03	1.42259020e-04
8.90000000e-01	2.61655125e-03	1.39982038e-04
8.95000000e-01	2.62352795e-03	1.36441077e-04
9.00000000e-01	2.65832192e-03	1.37008697e-04
9.05000000e-01	2.61793622e-03	1.28882041e-04
9.10000000e-01	2.59212652e-03	1.25344080e-04
9.15000000e-01	2.64864164e-03	1.26059929e-04
9.20000000e-01	2.67426785e-03	1.27172515e-04
9.25000000e-01	2.63923143e-03	1.20122856e-04
9.30000000e-01	2.70399299e-03	1.21702916e-04
9.35000000e-01	2.69909741e-03	1.19003523e-04
9.40000000e-01	2.68042050e-03	1.18704247e-04
9.45000000e-01	2.68646058e-03	1.16060513e-04
9.50000000e-01	2.71822960e-03	1.15566956e-04
9.55000000e-01	2.71225811e-03	1.13299703e-04
9.60000000e-01	2.71576889e-03	1.13464496e-04
9.65000000e-01	2.71162062e-03	1.11574939e-04
9.70000000e-01	2.72331365e-03	1.10241100e-04
9.75000000e-01	2.70837096e-03	1.08398246e-04
9.80000000e-01	2.71801725e-03	1.07848373e-04
9.85000000e-01	2.71768671e-03	1.07933097e-04
9.90000000e-01	2.73619900e-03	1.05431855e-04
9.95000000e-01	2.73676560e-03	1.04851077e-04
1.00000000e+00	2.74400624e-03	1.04659804e-04
1.00500000e+00	2.71222972e-03	1.03458767e-04
1.01000000e+00	2.73878751e-03	1.02196898e-04
1.01500000e+00	2.74263584e-03	1.01445670e-04
1.02000000e+00	2.74286235e-03	1.01361821e-04
1.02500000e+00	2.70770639e-03	9.88596768e-05
1.03000000e+00	2.71800192e-03	9.88999868e-05
1.03500000e+00	2.73286155e-03	9.81288623e-05
1.04000000e+00	2.72248494e-03	9.70419328e-05
1.04500000e+00	2.71598646e-03	9.69735125e-05
1.05000000e+00	2.68216325e-03	9.50915496e-05
1.05500000e+00	2.69940791e-03	9.43512308e-05
1.06000000e+00	2.69800055e-03	9.41670284e-05
1.06500000e+00	2.70460011e-03	9.43730770e-05
1.07000000e+00	2.69487796e-03	9.38239442e-05
1.07500000e+00	2.72989903e-03	9.42345932e-05
1.08000000e+00	2.72523391e-03	9.35688443e-05
1.08500000e+00	2.72337632e-03	9.36106589e-05
1.09000000e+00	2.72356375e-03	9.41642257e-05
1.09500000e+00	2.73245844e-03	9.26278139e-05
1.10000000e+00	2.74037922e-03	9.34658041e-05
1.10500000e+00	2.75781944e-03	9.44156940e-05
1.11000000e+00	2.75851747e-03	9.44358570e-05
1.11500000e+00	2.77880486e-03	9.44787692e-05
1.12000000e+00	2.78331506e-03	9.50172246e-05
1.12500000e+00	2.77664151e-03	9.45142547e-05
1.13000000e+00	2.78280005e-03	9.59894847e-05
1.13500000e+00	2.77869498e-03	9.46185837e-05
1.14000000e+00	2.78542669e-03	9.45587933e-05
1.14500000e+00	2.81154096e-03	9.62214489e-05
1.15000000e+00	2.81616065e-03	9.69777978e-05
1.15500000e+00	2.84116078e-03	9.67587062e-05
1.16000000e+00	2.83221152e-03	9.67812510e-05
1.16500000e+00	2.81792087e-03	9.62265828e-05
1.17000000e+00	2.83511155e-03	9.80301843e-05
1.17500000e+00	2.84014589e-03	9.67881417e-05
1.18000000e+00	2.84859585e-03	9.74102053e-05
1.18500000e+00	2.86278553e-03	9.78539581e-05
1.19000000e+00	2.84633549e-03	9.83372717e-05
1.19500000e+00	2.87563139e-03	9.80751711e-05
1.20000000e+00	2.88098105e-03	9.88445348e-05
1.20500000e+00	2.88430289e-03	9.87745984e-05
1.21000000e+00	2.88024222e-03	9.99302083e-05
1.21500000e+00	2.87509476e-03	9.81600844e-05
1.22000000e+00	2.88418499e-03	9.85689540e-05
1.22500000e+00	2.87602864e-03	9.86790498e-05
1.23000000e+00	2.87326539e-03	9.93174829e-05
1.23500000e+00	2.89962764e-03	9.96217904e-05
1.24000000e+00	2.88023435e-03	9.84308362e-05
1.24500000e+00	2.88195164e-03	9.92443436e-05
1.25000000e+00	2.87499006e-03	9.96177115e-05
1.25500000e+00	2.89901809e-03	9.92113816e-05
1.26000000e+00	2.89361459e-03	9.96445401e-05
1.26500000e+00	2.88391917e-03	9.89082378e-05
1.27000000e+00	2.91062329e-03	1.01278130e-04
1.27500000e+00	2.89608166e-03	9.98446969e-05
1.28000000e+00	2.90255596e-03	9.93320991e-05
1.28500000e+00	2.89366720e-03	9.96370867e-05
1.29000000e+00	2.90379241e-03	1.00871278e-04
1.29500000e+00	2.86722734e-03	9.86035734e-05
1.30000000e+00	2.87833239e-03	9.87920687e-05
1.30500000e+00	2.90733206e-03	1.00264904e-04
1.31000000e+00	2.91003271e-03	1.01441856e-04
1.31500000e+00	2.89998949e-03	9.98116976e-05
1.32000000e+00	2.90162143e-03	9.98145429e-05
1.32500000e+00	2.89931942e-03	1.00088418e-04
1.33000000e+00	2.88223067e-03	1.00562888e-04
1.33500000e+00	2.89950667e-03	9.98650263e-05
1.34000000e+00	2.91544535e-03	1.00514203e-04
1.34500000e+00	2.89178693e-03	1.00004689e-04
1.35000000e+00	2.90503621e-03	1.01421535e-04
1.35500000e+00	2.89445510e-03	9.97373581e-05
1.36000000e+00	2.89242980e-03	9.94589165e-05
1.36500000e+00	2.88367076e-03	9.94822736e-05
1.37000000e+00	2.87228109e-03	1.00618256e-04
1.37500000e+00	2.89397173e-03	9.97653475e-05
1.38000000e+00	2.88548702e-03	9.96803131e-05
1.38500000e+00	2.89041897e-03	1.00469738e-04
1.39000000e+00	2.88098872e-03	1.00748008e-04
1.39500000e+00	2.89089081e-03	9.96689128e-05
1.40000000e+00	2.90232718e-03	1.02999721e-04
1.40500000e+00	2.87949013e-03	1.10020299e-04
1.41000000e+00	2.84675170e-03	1.13968771e-04
1.41500000e+00	2.83736594e-03	1.17641484e-04
1.42000000e+00	2.80287318e-03	1.20990429e-04
1.42500000e+00	2.80932820e-03	1.24775137e-04
1.43000000e+00	2.77312482e-03	1.27859651e-04
1.43500000e+00	2.78979621e-03	1.32704367e-04
1.44000000e+00	2.78078489e-03	1.37110313e-04
1.44500000e+00	2.77875792e-03	1.40660486e-04
1.45000000e+00	2.81551471e-03	1.37934314e-04
1.45500000e+00	2.88010444e-03	1.26622309e-04
1.46000000e+00	2.82700237e-03	1.21470460e-04
1.46500000e+00	2.84719952e-03	1.20108275e-04
1.47000000e+00	2.84164256e-03	1.19700447e-04
1.47500000e+00	2.81958924e-03	1.15225355e-04
1.48000000e+00	2.84005737e-03	1.14889428e-04
1.48500000e+00	2.83034437e-03	1.14519262e-04
1.49000000e+00	2.83455834e-03	1.14955329e-04
1.49500000e+00	2.82350220e-03	1.12082452e-04
1.50000000e+00	2.84541712e-03	1.12559411e-04
1.50500000e+00	2.85379498e-03	1.13402330e-04
1.51000000e+00	2.84795976e-03	1.13459377e-04
1.51500000e+00	2.85482571e-03	1.11937971e-04
1.52000000e+00	2.83818305e-03	1.10881614e-04
1.52500000e+00	2.84094024e-03	1.10726529e-04
1.53000000e+00	2.84089676e-03	1.11425703e-04
1.53500000e+00	2.85011213e-03	1.08656864e-04
1.54000000e+00	2.83121415e-03	1.07755030e-04
1.54500000e+00	2.85060948e-03	1.08297993e-04
1.55000000e+00	2.79888633e-03	1.06055405e-04
1.55500000e+00	2.80438244e-03	1.03757258e-04
1.56000000e+00	2.78746923e-03	1.03460245e-04
1.56500000e+00	2.75669368e-03	1.01771445e-04
1.57000000e+00	2.74775991e-03	1.00737731e-04
1.57500000e+00	2.76262683e-03	9.93601912e-05
1.58000000e+00	2.74394979e-03	9.85675059e-05
1.58500000e+00	2.72022673e-03	9.77208331e-05
1.59000000e+00	2.72975060e-03	9.81227304e-05
1.59500000e+00	2.70383577e-03	9.53477485e-05
1.60000000e+00	2.72319794e-03	9.59762955e-05
1.60500000e+00	2.71151918e-03	9.55767981e-05
1.61000000e+00	2.71128821e-03	9.51099558e-05
1.61500000e+00	2.71558621e-03	9.44378062e-05
1.62000000e+00	2.69093471e-03	9.40113764e-05
1.62500000e+00	2.66846747e-03	9.42562033e-05
1.63000000e+00	2.69236811e-03	9.40870338e-05
1.63500000e+00	2.69932408e-03	9.42922260e-05
1.64000000e+00	2.67073732e-03	9.34276183e-05
1.64500000e+00	2.66458906e-03	9.41983296e-05
1.65000000e+00	2.66963336e-03	9.33847433e-05
1.65500000e+00	2.64419018e-03	9.23870854e-05
1.66000000e+00	2.63447459e-03	9.21553193e-05
1.66500000e+00	2.65245171e-03	9.43032578e-05
1.67000000e+00	2.64543883e-03	9.21432001e-05
1.67500000e+00	2.62359068e-03	9.15718904e-05
1.68000000e+00	2.62568840e-03	9.19818167e-05
1.68500000e+00	2.62423087e-03	9.34159671e-05
1.69000000e+00	2.61450703e-03	9.12934462e-05
1.69500000e+00	2.60821661e-03	9.09011003e-05
1.70000000e+00	2.59901115e-03	9.16527464e-05
1.70500000e+00	2.61029833e-03	9.23712420e-05
1.71000000e+00	2.59281467e-03	9.06186148e-05
1.71500000e+00	2.60685059e-03	9.10831432e-05
1.72000000e+00	2.56030277e-03	9.01523589e-05
1.72500000e+00	2.59184928e-03	9.18061077e-05
1.73000000e+00	2.56274539e-03	8.95539163e-05
1.73500000e+00	2.55626159e-03	8.95920451e-05
1.74000000e+00	2.56048254e-03	8.99787555e-05
1.74500000e+00	2.54940766e-03	9.05946921e-05
1.75000000e+00	2.53776089e-03	8.84773308e-05
1.75500000e+00	2.53583285e-03	8.90031904e-05
1.76000000e+00	2.52242393e-03	8.84433687e-05
1.76500000e+00	2.53222130e-03	8.99871449e-05
1.77000000e+00	2.51232924e-03	8.77323868e-05
1.77500000e+00	2.50723583e-03	8.78353713e-05
1.78000000e+00	2.50518160e-03	8.80137936e-05
1.78500000e+00	2.50447477e-03	8.89127418e-05
1.79000000e+00	2.48942583e-03	8.68811867e-05
1.79500000e+00	2.48420579e-03	8.69831949e-05
1.80000000e+00	2.47198853e-03	8.70537142e-05
1.80500000e+00	2.45112127e-03	8.69028875e-05
1.81000000e+00	2.47114857e-03	8.62825818e-05
1.81500000e+00	2.45234320e-03	8.57129619e-05
1.82000000e+00	2.44759806e-03	8.61925048e-05
1.82500000e+00	2.44729689e-03	8.66607702e-05
1.83000000e+00	2.41472084e-03	8.44020603e-05
1.83500000e+00	2.43471465e-03	8.52815470e-05
1.84000000e+00	2.39870520e-03	8.45506664e-05
1.84500000e+00	2.40660122e-03	8.51838671e-05
1.85000000e+00	2.41255624e-03	8.43818076e-05
1.85500000e+00	2.38831677e-03	8.37143293e-05
1.86000000e+00	2.39199152e-03	8.43396609e-05
1.86500000e+00	2.39128827e-03	8.45347575e-05
1.87000000e+00	2.38295761e-03	8.33416930e-05
1.87500000e+00	2.37454103e-03	8.33132652e-05
1.88000000e+00	2.36615051e-03	8.33610975e-05
1.88500000e+00	2.34944602e-03	8.32573212e-05
1.89000000e+00	2.33243263e-03	8.15479442e-05
1.89500000e+00	2.34465734e-03	8.24429446e-05
1.90000000e+00	2.32463691e-03	8.19389645e-05
1.90500000e+00	2.32566156e-03	8.20587452e-05
1.91000000e+00	2.33566055e-03	8.18579717e-05
1.91500000e+00	2.30097465e-03	8.07018201e-05
1.92000000e+00	2.31812526e-03	8.17862298e-05
1.92500000e+00	2.29077181e-03	8.08619776e-05
1.93000000e+00	2.29049676e-03	8.01401885e-05
1.93500000e+00	2.30584465e-03	8.09094897e-05
1.94000000e+00	2.27012304e-03	8.03753974e-05
1.94500000e+00	2.26984193e-03	8.00441057e-05
1.95000000e+00	2.27109685e-03	7.94269548e-05
1.95500000e+00	2.25626803e-03	7.92049363e-05
1.96000000e+00	2.25716476e-03	7.97583522e-05
1.96500000e+00	2.23802869e-03	7.90866974e-05
1.97000000e+00	2.22123477e-03	7.75263108e-05
1.97500000e+00	2.22760716e-03	7.82598083e-05
1.98000000e+00	2.22919113e-03	7.86537768e-05
1.98500000e+00	2.22385740e-03	7.85410509e-05
1.99000000e+00	2.20479123e-03	7.70085677e-05
1.99500000e+00	2.18712275e-03	7.67984090e-05
2.00000000e+00	2.18848598e-03	7.72353035e-05
2.00500000e+00	2.22804585e-03	7.87712609e-05
2.01000000e+00	2.16999097e-03	8.42909884e-05
2.01500000e+00	2.16861105e-03	8.94304881e-05
2.02000000e+00	2.15455736e-03	9.48304045e-05
2.02500000e+00	2.11852943e-03	9.68513686e-05
2.03000000e+00	2.09979931e-03	1.01554150e-04
2.03500000e+00	2.10259117e-03	1.06434435e-04
2.04000000e+00	2.12594236e-03	1.12307243e-04
2.04500000e+00	2.08101236e-03	1.15806520e-04
2.05000000e+00	2.05753062e-03	1.20157589e-04
2.05500000e+00	2.09635972e-03	1.19993743e-04
2.06000000e+00	2.11557880e-03	1.05230030e-04
2.06500000e+00	2.08359570e-03	9.91428825e-05
2.07000000e+00	2.09102141e-03	9.42049692e-05
2.07500000e+00	2.07082254e-03	9.12011038e-05
2.08000000e+00	2.07758399e-03	9.12620914e-05
2.08500000e+00	2.06553970e-03	9.00113234e-05
2.09000000e+00	2.09294526e-03	8.85153843e-05
2.09500000e+00	2.05565909e-03	8.59170650e-05
2.10000000e+00	2.05018509e-03	8.50173069e-05
2.10500000e+00	2.06321172e-03	8.53752338e-05
2.11000000e+00	2.04187097e-03	8.14135974e-05
2.11500000e+00	2.01416827e-03	7.95174974e-05
2.12000000e+00	2.02257576e-03	7.94656321e-05
2.12500000e+00	1.98792880e-03	7.79073212e-05
2.13000000e+00	1.99800663e-03	7.50523372e-05
2.13500000e+00	1.97614343e-03	7.34472246e-05
2.14000000e+00	1.97319520e-03	7.25893987e-05
2.14500000e+00	1.93611207e-03	7.14062883e-05
2.15000000e+00	1.94748721e-03	6.94903809e-05
2.15500000e+00	1.93945813e-03	6.92896872e-05
2.16000000e+00	1.92090719e-03	6.83402700e-05
2.16500000e+00	1.90405508e-03	6.81438253e-05
2.17000000e+00	1.91293602e-03	6.68226972e-05
2.17500000e+00	1.89969688e-03	6.65736316e-05
2.18000000e+00	1.88741867e-03	6.63148553e-05
2.18500000e+00	1.87073713e-03	6.60767655e-05
2.19000000e+00	1.86483832e-03	6.56593739e-05
2.19500000e+00	1.85172032e-03	6.48315851e-05
2.20000000e+00	1.84513809e-03	6.48294169e-05
2.20500000e+00	1.82582374e-03	6.42790346e-05
2.21000000e+00	1.84537594e-03	6.52571852e-05
2.21500000e+00	1.83916350e-03	6.43693644e-05
2.22000000e+00	1.81239868e-03	6.33801505e-05
2.22500000e+00	1.78847300e-03	6.30607209e-05
2.23000000e+00	1.79210589e-03	6.35523713e-05
2.23500000e+00	1.78764693e-03	6.25010615e-05
2.24000000e+00	1.77560303e-03	6.21418760e-05
2.24500000e+00	1.75992782e-03	6.19829576e-05
2.25000000e+00	1.74891098e-03	6.22139627e-05
2.25500000e+00	1.73141568e-03	6.04765742e-05
2.26000000e+00	1.72167848e-03	6.02884289e-05
2.26500000e+00	1.72937290e-03	6.07975486e-05
2.27000000e+00	1.69884771e-03	6.05901886e-05
2.27500000e+00	1.69623059e-03	5.92103626e-05
2.28000000e+00	1.68848018e-03	5.89959557e-05
2.28500000e+00	1.67351700e-03	5.88718044e-05
2.29000000e+00	1.65925698e-03	5.86522254e-05
2.29500000e+00	1.65819821e-03	5.85562867e-05
2.30000000e+00	1.63304421e-03	5.70591628e-05
2.30500000e+00	1.62534559e-03	5.70083263e-05
2.31000000e+00	1.60024154e-03	5.64585932e-05
2.31500000e+00	1.61331091e-03	5.73311957e-05
2.32000000e+00	1.59216942e-03	5.54076391e-05
2.32500000e+00	1.59774334e-03	5.60489648e-05
2.33000000e+00	1.58388162e-03	5.56394225e-05
2.33500000e+00	1.57745843e-03	5.60024610e-05
2.34000000e+00	1.53295790e-03	5.35496196e-05
2.34500000e+00	1.55964620e-03	5.45284158e-05
2.35000000e+00	1.55105942e-03	5.43141797e-05
2.35500000e+00	1.53924787e-03	5.46590351e-05
2.36000000e+00	1.52930254e-03	5.35613119e-05
2.36500000e+00	1.52321944e-03	5.33015132e-05
2.37000000e+00	1.50287567e-03	5.26065640e-05
2.37500000e+00	1.48145197e-03	5.23052410e-05
2.38000000e+00	1.47750633e-03	5.23931240e-05
2.38500000e+00	1.48854396e-03	5.19996983e-05
2.39000000e+00	1.47546767e-03	5.17876693e-05
2.39500000e+00	1.46415302e-03	5.16539911e-05
2.40000000e+00	1.44061503e-03	5.15164169e-05
2.40500000e+00	1.45181409e-03	5.09121160e-05
2.41000000e+00	1.45574267e-03	5.12301949e-05
2.41500000e+00	1.42165638e-03	5.00357432e-05
2.42000000e+00	1.41376942e-03	5.04072123e-05
2.42500000e+00	1.41106132e-03	5.02855067e-05
2.43000000e+00	1.40210183e-03	4.95247485e-05
2.43500000e+00	1.39092266e-03	4.92452236e-05
2.44000000e+00	1.37818645e-03	4.88566094e-05
2.44500000e+00	1.36834806e-03	4.92060510e-05
2.45000000e+00	1.37528684e-03	4.85952601e-05
2.45500000e+00	1.37428813e-03	4.86331624e-05
2.46000000e+00	1.34859581e-03	4.79395861e-05
2.46500000e+00	1.34276983e-03	4.83625358e-05
2.47000000e+00	1.34964029e-03	4.80872333e-05
2.47500000e+00	1.32425396e-03	4.69270323e-05
2.48000000e+00	1.32191760e-03	4.72716062e-05
2.48500000e+00	1.31575754e-03	4.69957983e-05
2.49000000e+00	1.30915010e-03	4.73612388e-05
2.49500000e+00	1.29588705e-03	4.60627368e-05
2.50000000e+00	1.28631354e-03	4.57927416e-05
2.50500000e+00	1.28594241e-03	4.60582199e-05
2.51000000e+00	1.26988118e-03	4.57477089e-05
2.51500000e+00	1.26638003e-03	4.57866079e-05
2.52000000e+00	1.26841413e-03	4.55644626e-05
2.52500000e+00	1.24728450e-03	4.49023083e-05
2.53000000e+00	1.24995246e-03	4.54073399e-05
2.53500000e+00	1.23523328e-03	4.53956375e-05
2.54000000e+00	1.21989459e-03	4.40808124e-05
2.54500000e+00	1.21765175e-03	4.42101019e-05
2.55000000e+00	1.21662961e-03	4.43669187e-05
2.55500000e+00	1.21035013e-03	4.44944193e-05
2.56000000e+00	1.21054394e-03	4.47850127e-05
2.56500000e+00	1.19597555e-03	4.39129164e-05
2.57000000e+00	1.18823905e-03	4.37582970e-05
2.57500000e+00	1.17846200e-03	4.34766010e-05
2.58000000e+00	1.16947674e-03	4.38311214e-05
2.58500000e+00	1.16828781e-03	4.35182145e-05
2.59000000e+00	1.16817469e-03	4.33074333e-05
2.59500000e+00	1.14881698e-03	4.27818183e-05
2.60000000e+00	1.15910656e-03	4.35171876e-05
2.60500000e+00	1.14772966e-03	4.40969744e-05
2.61000000e+00	1.15196139e-03	5.03681343e-05
2.61500000e+00	1.14746992e-03	5.55322953e-05
2.62000000e+00	1.14131874e-03	6.07614589e-05
2.62500000e+00	1.11114484e-03	6.38713595e-05
2.63000000e+00	1.13250142e-03	7.20757907e-05
2.63500000e+00	1.10033816e-03	7.75083285e-05
2.64000000e+00	1.12494581e-03	8.75835080e-05
2.64500000e+00	1.09882405e-03	9.10517739e-05
2.65000000e+00	1.08295328e-03	9.51063041e-05
2.65500000e+00	1.07380759e-03	1.01647810e-04
2.66000000e+00	1.06219747e-03	1.07254121e-04
2.66500000e+00	1.05225787e-03	1.19613461e-04
2.67000000e+00	1.08852612e-03	1.34152045e-04
2.67500000e+00	1.03246152e-03	1.49122122e-04
2.68000000e+00	1.10787018e-03	1.84479757e-04
2.68500000e+00	1.03365980e-03	2.28852679e-04
2.69000000e+00	1.18997569e-03	4.23607076e-04
2.69500000e+00	0.00000000e+00	0.00000000e+00
2.70000000e+00	0.00000000e+00	0.00000000e+00
