% Filename : WDL5_p7_00025_00040.h5
% Date & Time : 30-Oct-2025 16:57:44
% X-ray Energy (keV) : 13.30001
% Exposure Time (s) : 0.500
% Photodiode Value : 144365.000
% I0 of Sample : 0
% I0 of Standard : 1
% 
% q(A^-1)   I(q)    I(q)_SE
8.40000000e-01	0.00000000e+00	0.00000000e+00
8.45000000e-01	3.21645022e-03	5.63417730e-04
8.50000000e-01	3.00024526e-03	2.78024366e-04
8.55000000e-01	2.90382204e-03	2.37693137e-04
8.60000000e-01	2.93796753e-03	2.07627670e-04
8.65000000e-01	2.92593660e-03	1.90665196e-04
8.70000000e-01	2.94642927e-03	1.82836269e-04
8.75000000e-01	2.95576560e-03	1.76558741e-04
8.80000000e-01	2.95395207e-03	1.70604696e-04
8.85000000e-01	2.95870783e-03	1.61553748e-04
8.90000000e-01	2.98466464e-03	1.59497636e-04
8.95000000e-01	2.97568726e-03	1.54604480e-04
9.00000000e-01	2.99135183e-03	1.53843071e-04
9.05000000e-01	2.99318639e-03	1.47285365e-04
9.10000000e-01	3.02836466e-03	1.46255997e-04
9.15000000e-01	3.02547603e-03	1.43779151e-04
9.20000000e-01	3.02832600e-03	1.43889269e-04
9.25000000e-01	3.06721538e-03	1.39294528e-04
9.30000000e-01	3.05841328e-03	1.37629750e-04
9.35000000e-01	3.09896763e-03	1.36510935e-04
9.40000000e-01	3.09338717e-03	1.36773344e-04
9.45000000e-01	3.09410108e-03	1.33416877e-04
9.50000000e-01	3.10189383e-03	1.31785433e-04
9.55000000e-01	3.12368381e-03	1.30386596e-04
9.60000000e-01	3.12801541e-03	1.30622627e-04
9.65000000e-01	3.12759853e-03	1.28405576e-04
9.70000000e-01	3.16407161e-03	1.27884127e-04
9.75000000e-01	3.15681197e-03	1.26252608e-04
9.80000000e-01	3.20011895e-03	1.26752956e-04
9.85000000e-01	3.20381733e-03	1.27049700e-04
9.90000000e-01	3.21234889e-03	1.23557364e-04
9.95000000e-01	3.25240537e-03	1.24418230e-04
1.00000000e+00	3.26046817e-03	1.24172579e-04
1.00500000e+00	3.25513258e-03	1.24117597e-04
1.01000000e+00	3.28539629e-03	1.22564440e-04
1.01500000e+00	3.30226736e-03	1.22060566e-04
1.02000000e+00	3.30466908e-03	1.22024832e-04
1.02500000e+00	3.30458070e-03	1.20594221e-04
1.03000000e+00	3.34031552e-03	1.21384397e-04
1.03500000e+00	3.36464571e-03	1.20605538e-04
1.04000000e+00	3.35097164e-03	1.19157520e-04
1.04500000e+00	3.36818545e-03	1.19777099e-04
1.05000000e+00	3.34878690e-03	1.18354134e-04
1.05500000e+00	3.32712529e-03	1.15696772e-04
1.06000000e+00	3.36367664e-03	1.16822401e-04
1.06500000e+00	3.38742130e-03	1.17585990e-04
1.07000000e+00	3.35073977e-03	1.16119773e-04
1.07500000e+00	3.36477947e-03	1.15845297e-04
1.08000000e+00	3.38049747e-03	1.15671583e-04
1.08500000e+00	3.36515103e-03	1.15270592e-04
1.09000000e+00	3.34589005e-03	1.15372280e-04
1.09500000e+00	3.34788730e-03	1.13096812e-04
1.10000000e+00	3.39520333e-03	1.15355215e-04
1.10500000e+00	3.37342368e-03	1.14978285e-04
1.11000000e+00	3.39454735e-03	1.15735946e-04
1.11500000e+00	3.39065092e-03	1.14992759e-04
1.12000000e+00	3.40330824e-03	1.15810256e-04
1.12500000e+00	3.39800031e-03	1.15382923e-04
1.13000000e+00	3.40801048e-03	1.17091370e-04
1.13500000e+00	3.46244018e-03	1.17545930e-04
1.14000000e+00	3.47202703e-03	1.17577890e-04
1.14500000e+00	3.46881056e-03	1.18470746e-04
1.15000000e+00	3.48030166e-03	1.19570880e-04
1.15500000e+00	3.52859090e-03	1.19901448e-04
1.16000000e+00	3.52786367e-03	1.20230077e-04
1.16500000e+00	3.52690876e-03	1.20135764e-04
1.17000000e+00	3.54801347e-03	1.22320947e-04
1.17500000e+00	3.57573769e-03	1.21458843e-04
1.18000000e+00	3.56507972e-03	1.21683030e-04
1.18500000e+00	3.58543365e-03	1.22200316e-04
1.19000000e+00	3.55472786e-03	1.22512854e-04
1.19500000e+00	3.58708024e-03	1.22123887e-04
1.20000000e+00	3.57950390e-03	1.22508833e-04
1.20500000e+00	3.57725004e-03	1.22169281e-04
1.21000000e+00	3.56102718e-03	1.23131009e-04
1.21500000e+00	3.55276797e-03	1.20962912e-04
1.22000000e+00	3.54656589e-03	1.20840045e-04
1.22500000e+00	3.52924211e-03	1.20691707e-04
1.23000000e+00	3.53340568e-03	1.21934281e-04
1.23500000e+00	3.52058845e-03	1.20553447e-04
1.24000000e+00	3.51509779e-03	1.19840355e-04
1.24500000e+00	3.52794109e-03	1.21162219e-04
1.25000000e+00	3.53068321e-03	1.21968497e-04
1.25500000e+00	3.51523858e-03	1.20060067e-04
1.26000000e+00	3.53145170e-03	1.21309569e-04
1.26500000e+00	3.53516720e-03	1.20980602e-04
1.27000000e+00	3.53773752e-03	1.22811713e-04
1.27500000e+00	3.51120417e-03	1.20685626e-04
1.28000000e+00	3.53535309e-03	1.20711605e-04
1.28500000e+00	3.54618467e-03	1.21804346e-04
1.29000000e+00	3.50233319e-03	1.21342252e-04
1.29500000e+00	3.55298548e-03	1.21840247e-04
1.30000000e+00	3.52530231e-03	1.20685778e-04
1.30500000e+00	3.55266967e-03	1.22145759e-04
1.31000000e+00	3.55651583e-03	1.23597177e-04
1.31500000e+00	3.55041481e-03	1.21952075e-04
1.32000000e+00	3.55929323e-03	1.22176141e-04
1.32500000e+00	3.57455284e-03	1.22989604e-04
1.33000000e+00	3.54995110e-03	1.23666557e-04
1.33500000e+00	3.54950279e-03	1.21995320e-04
1.34000000e+00	3.58013540e-03	1.23078799e-04
1.34500000e+00	3.58138263e-03	1.23624120e-04
1.35000000e+00	3.56468598e-03	1.24251621e-04
1.35500000e+00	3.57874175e-03	1.23088063e-04
1.36000000e+00	3.59111818e-03	1.23336955e-04
1.36500000e+00	3.59082776e-03	1.23697750e-04
1.37000000e+00	3.57680116e-03	1.24929632e-04
1.37500000e+00	3.58233983e-03	1.23290547e-04
1.38000000e+00	3.57010612e-03	1.23043245e-04
1.38500000e+00	3.61441535e-03	1.25299987e-04
1.39000000e+00	3.60077695e-03	1.25667628e-04
1.39500000e+00	3.60064179e-03	1.23753869e-04
1.40000000e+00	3.65693870e-03	1.29514875e-04
1.40500000e+00	3.60132475e-03	1.37291697e-04
1.41000000e+00	3.59397782e-03	1.43424873e-04
1.41500000e+00	3.60124047e-03	1.48953091e-04
1.42000000e+00	3.58302368e-03	1.54248324e-04
1.42500000e+00	3.60975459e-03	1.59873720e-04
1.43000000e+00	3.62917002e-03	1.66805711e-04
1.43500000e+00	3.61396252e-03	1.71227519e-04
1.44000000e+00	3.61917279e-03	1.78275204e-04
1.44500000e+00	3.62377743e-03	1.82973961e-04
1.45000000e+00	3.71985589e-03	1.81536496e-04
1.45500000e+00	3.72042795e-03	1.63145045e-04
1.46000000e+00	3.71548328e-03	1.59176510e-04
1.46500000e+00	3.66536771e-03	1.54118006e-04
1.47000000e+00	3.67943417e-03	1.54505342e-04
1.47500000e+00	3.71166595e-03	1.51325348e-04
1.48000000e+00	3.67225597e-03	1.48160112e-04
1.48500000e+00	3.67460477e-03	1.48457280e-04
1.49000000e+00	3.65622142e-03	1.47942919e-04
1.49500000e+00	3.68751820e-03	1.45897259e-04
1.50000000e+00	3.68305942e-03	1.45317175e-04
1.50500000e+00	3.70137920e-03	1.46852532e-04
1.51000000e+00	3.71004843e-03	1.47436044e-04
1.51500000e+00	3.79108899e-03	1.48309389e-04
1.52000000e+00	3.79992158e-03	1.48205112e-04
1.52500000e+00	3.78624679e-03	1.47542396e-04
1.53000000e+00	3.78231233e-03	1.48303552e-04
1.53500000e+00	3.77867062e-03	1.43889333e-04
1.54000000e+00	3.76925753e-03	1.43419995e-04
1.54500000e+00	3.84284873e-03	1.45867325e-04
1.55000000e+00	3.80605878e-03	1.44126222e-04
1.55500000e+00	3.86433642e-03	1.43075043e-04
1.56000000e+00	3.86623137e-03	1.43393902e-04
1.56500000e+00	3.90542240e-03	1.44261970e-04
1.57000000e+00	3.96327500e-03	1.45449390e-04
1.57500000e+00	4.00289464e-03	1.44289197e-04
1.58000000e+00	4.03155529e-03	1.45065488e-04
1.58500000e+00	4.08852566e-03	1.47407425e-04
1.59000000e+00	4.12499723e-03	1.48970327e-04
1.59500000e+00	4.19577220e-03	1.48707337e-04
1.60000000e+00	4.23052427e-03	1.50068232e-04
1.60500000e+00	4.24643183e-03	1.50720803e-04
1.61000000e+00	4.26623013e-03	1.50879030e-04
1.61500000e+00	4.21611574e-03	1.47704068e-04
1.62000000e+00	4.19821411e-03	1.47618429e-04
1.62500000e+00	4.13584810e-03	1.47056109e-04
1.63000000e+00	4.06772291e-03	1.42875596e-04
1.63500000e+00	3.98069958e-03	1.39767078e-04
1.64000000e+00	3.91023694e-03	1.37114533e-04
1.64500000e+00	3.85325141e-03	1.36585143e-04
1.65000000e+00	3.77290056e-03	1.32059120e-04
1.65500000e+00	3.70284979e-03	1.29496672e-04
1.66000000e+00	3.62344439e-03	1.26680238e-04
1.66500000e+00	3.58817948e-03	1.27487244e-04
1.67000000e+00	3.53254774e-03	1.22799796e-04
1.67500000e+00	3.50007170e-03	1.22098385e-04
1.68000000e+00	3.44959062e-03	1.20552688e-04
1.68500000e+00	3.42849027e-03	1.21891440e-04
1.69000000e+00	3.41841872e-03	1.19074879e-04
1.69500000e+00	3.38189307e-03	1.17689699e-04
1.70000000e+00	3.36278179e-03	1.18296677e-04
1.70500000e+00	3.32982930e-03	1.17644564e-04
1.71000000e+00	3.32292394e-03	1.16012261e-04
1.71500000e+00	3.32873791e-03	1.16012377e-04
1.72000000e+00	3.27937092e-03	1.15243470e-04
1.72500000e+00	3.29512663e-03	1.16500498e-04
1.73000000e+00	3.26450109e-03	1.13946100e-04
1.73500000e+00	3.27083626e-03	1.14462558e-04
1.74000000e+00	3.27082377e-03	1.14662434e-04
1.74500000e+00	3.25070099e-03	1.15349180e-04
1.75000000e+00	3.20963841e-03	1.11700471e-04
1.75500000e+00	3.22788984e-03	1.13130016e-04
1.76000000e+00	3.20269132e-03	1.12091939e-04
1.76500000e+00	3.20353852e-03	1.13606983e-04
1.77000000e+00	3.19153318e-03	1.11279965e-04
1.77500000e+00	3.18193254e-03	1.11343546e-04
1.78000000e+00	3.15889771e-03	1.10801551e-04
1.78500000e+00	3.16282255e-03	1.12075833e-04
1.79000000e+00	3.16262925e-03	1.10292842e-04
1.79500000e+00	3.12924532e-03	1.09343102e-04
1.80000000e+00	3.14477856e-03	1.10549955e-04
1.80500000e+00	3.13427294e-03	1.10929233e-04
1.81000000e+00	3.13079792e-03	1.09171939e-04
1.81500000e+00	3.11568463e-03	1.08729449e-04
1.82000000e+00	3.10428864e-03	1.09118681e-04
1.82500000e+00	3.09336125e-03	1.09356589e-04
1.83000000e+00	3.07059988e-03	1.07136832e-04
1.83500000e+00	3.08407256e-03	1.07952715e-04
1.84000000e+00	3.07216933e-03	1.08000612e-04
1.84500000e+00	3.05229889e-03	1.07987847e-04
1.85000000e+00	3.03155001e-03	1.05914067e-04
1.85500000e+00	3.03006939e-03	1.06013517e-04
1.86000000e+00	3.01612030e-03	1.06231331e-04
1.86500000e+00	2.99680002e-03	1.05794152e-04
1.87000000e+00	2.98507585e-03	1.04186971e-04
1.87500000e+00	3.01195635e-03	1.05464549e-04
1.88000000e+00	2.98073153e-03	1.04778575e-04
1.88500000e+00	2.97155837e-03	1.05172165e-04
1.89000000e+00	2.96230762e-03	1.03425494e-04
1.89500000e+00	2.95924375e-03	1.03790329e-04
1.90000000e+00	2.92881637e-03	1.03059273e-04
1.90500000e+00	2.92518909e-03	1.03026881e-04
1.91000000e+00	2.91065481e-03	1.01758015e-04
1.91500000e+00	2.88220106e-03	1.00901093e-04
1.92000000e+00	2.89362584e-03	1.01812477e-04
1.92500000e+00	2.88470352e-03	1.01620988e-04
1.93000000e+00	2.89010585e-03	1.00966403e-04
1.93500000e+00	2.86153865e-03	1.00213596e-04
1.94000000e+00	2.84748016e-03	1.00479103e-04
1.94500000e+00	2.83403242e-03	9.97650698e-05
1.95000000e+00	2.82573423e-03	9.85466892e-05
1.95500000e+00	2.82004072e-03	9.87625136e-05
1.96000000e+00	2.81423515e-03	9.92395536e-05
1.96500000e+00	2.79979569e-03	9.87785933e-05
1.97000000e+00	2.79987257e-03	9.75530617e-05
1.97500000e+00	2.78224192e-03	9.75911867e-05
1.98000000e+00	2.77580554e-03	9.76839457e-05
1.98500000e+00	2.78121354e-03	9.81529890e-05
1.99000000e+00	2.77498156e-03	9.66254462e-05
1.99500000e+00	2.77466518e-03	9.71680275e-05
2.00000000e+00	2.76325493e-03	9.73885645e-05
2.00500000e+00	2.77376325e-03	9.79635881e-05
2.01000000e+00	2.73369642e-03	1.05927477e-04
2.01500000e+00	2.75090568e-03	1.13213962e-04
2.02000000e+00	2.73009034e-03	1.19756972e-04
2.02500000e+00	2.66700564e-03	1.21571768e-04
2.03000000e+00	2.68199993e-03	1.29538030e-04
2.03500000e+00	2.66952886e-03	1.34751538e-04
2.04000000e+00	2.65398045e-03	1.40039016e-04
2.04500000e+00	2.65106651e-03	1.46889161e-04
2.05000000e+00	2.61087675e-03	1.52122525e-04
2.05500000e+00	2.66924315e-03	1.52400729e-04
2.06000000e+00	2.69965680e-03	1.34099490e-04
2.06500000e+00	2.65480653e-03	1.25936183e-04
2.07000000e+00	2.67806746e-03	1.21105699e-04
2.07500000e+00	2.72825180e-03	1.36436357e-04
2.08000000e+00	2.63424776e-03	1.15459905e-04
2.08500000e+00	2.63588908e-03	1.14572201e-04
2.09000000e+00	2.61727354e-03	1.10460319e-04
2.09500000e+00	2.62971653e-03	1.09807969e-04
2.10000000e+00	2.62995360e-03	1.08957997e-04
2.10500000e+00	2.59138623e-03	1.07013523e-04
2.11000000e+00	2.58647883e-03	1.02913113e-04
2.11500000e+00	2.56949991e-03	1.01234818e-04
2.12000000e+00	2.54153426e-03	9.96456844e-05
2.12500000e+00	2.54472376e-03	9.94032091e-05
2.13000000e+00	2.48635025e-03	9.31837207e-05
2.13500000e+00	2.48885721e-03	9.21566626e-05
2.14000000e+00	2.48283321e-03	9.10789981e-05
2.14500000e+00	2.46698259e-03	9.07443246e-05
2.15000000e+00	2.46053897e-03	8.75307281e-05
2.15500000e+00	2.44789252e-03	8.72556560e-05
2.16000000e+00	2.45853993e-03	8.72793896e-05
2.16500000e+00	2.42459234e-03	8.66095082e-05
2.17000000e+00	2.41170749e-03	8.40310304e-05
2.17500000e+00	2.43166337e-03	8.49533083e-05
2.18000000e+00	2.40503706e-03	8.42455698e-05
2.18500000e+00	2.39148583e-03	8.41611393e-05
2.19000000e+00	2.40370912e-03	8.44472529e-05
2.19500000e+00	2.36314661e-03	8.24837859e-05
2.20000000e+00	2.36314592e-03	8.27500279e-05
2.20500000e+00	2.35544001e-03	8.26941563e-05
2.21000000e+00	2.32784915e-03	8.22206353e-05
2.21500000e+00	2.29975715e-03	8.02889875e-05
2.22000000e+00	2.31498331e-03	8.07208354e-05
2.22500000e+00	2.29676768e-03	8.07282654e-05
2.23000000e+00	2.25987830e-03	7.99247955e-05
2.23500000e+00	2.26686566e-03	7.90439774e-05
2.24000000e+00	2.25525699e-03	7.86369949e-05
2.24500000e+00	2.23281706e-03	7.84614523e-05
2.25000000e+00	2.22588668e-03	7.88674219e-05
2.25500000e+00	2.19506474e-03	7.63545679e-05
2.26000000e+00	2.18009769e-03	7.61262729e-05
2.26500000e+00	2.16463366e-03	7.59495819e-05
2.27000000e+00	2.16949160e-03	7.70719304e-05
2.27500000e+00	2.15704931e-03	7.50523283e-05
2.28000000e+00	2.12242864e-03	7.39846725e-05
2.28500000e+00	2.12159529e-03	7.44664342e-05
2.29000000e+00	2.10021434e-03	7.40820232e-05
2.29500000e+00	2.10072388e-03	7.39014968e-05
2.30000000e+00	2.07666187e-03	7.22776652e-05
2.30500000e+00	2.09888870e-03	7.32739523e-05
2.31000000e+00	2.07499573e-03	7.28975948e-05
2.31500000e+00	2.08372710e-03	7.37921423e-05
2.32000000e+00	2.05721534e-03	7.13128428e-05
2.32500000e+00	2.04584211e-03	7.14840311e-05
2.33000000e+00	2.02753774e-03	7.10654220e-05
2.33500000e+00	2.03083021e-03	7.18843914e-05
2.34000000e+00	2.01697600e-03	7.01981516e-05
2.34500000e+00	2.00719554e-03	6.98853473e-05
2.35000000e+00	2.01576509e-03	7.03858242e-05
2.35500000e+00	2.00273114e-03	7.09055177e-05
2.36000000e+00	2.00185574e-03	6.98191045e-05
2.36500000e+00	1.99504862e-03	6.95919352e-05
2.37000000e+00	2.01130075e-03	7.01691444e-05
2.37500000e+00	1.99551650e-03	7.02101797e-05
2.38000000e+00	1.99822276e-03	7.06716426e-05
2.38500000e+00	1.99421642e-03	6.94904356e-05
2.39000000e+00	1.97278276e-03	6.89596021e-05
2.39500000e+00	1.96364131e-03	6.89208641e-05
2.40000000e+00	1.97485758e-03	7.03865057e-05
2.40500000e+00	1.93936008e-03	6.77915450e-05
2.41000000e+00	1.93321173e-03	6.77929071e-05
2.41500000e+00	1.92390726e-03	6.75078427e-05
2.42000000e+00	1.93585407e-03	6.87649977e-05
2.42500000e+00	1.89598115e-03	6.72841650e-05
2.43000000e+00	1.87849682e-03	6.60752567e-05
2.43500000e+00	1.85202006e-03	6.53356569e-05
2.44000000e+00	1.85939181e-03	6.57526417e-05
2.44500000e+00	1.83447870e-03	6.56772649e-05
2.45000000e+00	1.83056293e-03	6.44426817e-05
2.45500000e+00	1.80222850e-03	6.35852748e-05
2.46000000e+00	1.79465913e-03	6.37825903e-05
2.46500000e+00	1.78831451e-03	6.42401859e-05
2.47000000e+00	1.77498245e-03	6.30677311e-05
2.47500000e+00	1.76903765e-03	6.25004013e-05
2.48000000e+00	1.76722765e-03	6.29983207e-05
2.48500000e+00	1.73365240e-03	6.18505299e-05
2.49000000e+00	1.74897575e-03	6.32745754e-05
2.49500000e+00	1.73941711e-03	6.17032178e-05
2.50000000e+00	1.71480623e-03	6.10139675e-05
2.50500000e+00	1.71548529e-03	6.13328874e-05
2.51000000e+00	1.68176927e-03	6.06372612e-05
2.51500000e+00	1.68062454e-03	6.06960188e-05
2.52000000e+00	1.66820579e-03	5.96323100e-05
2.52500000e+00	1.68199909e-03	6.04294761e-05
2.53000000e+00	1.66251649e-03	6.03075533e-05
2.53500000e+00	1.64780974e-03	6.04618092e-05
2.54000000e+00	1.62235557e-03	5.85689078e-05
2.54500000e+00	1.63968563e-03	5.94133279e-05
2.55000000e+00	1.62626248e-03	5.91765357e-05
2.55500000e+00	1.60479251e-03	5.88321139e-05
2.56000000e+00	1.60502445e-03	5.91347397e-05
2.56500000e+00	1.60575469e-03	5.87519447e-05
2.57000000e+00	1.60374259e-03	5.89868654e-05
2.57500000e+00	1.59270399e-03	5.85821356e-05
2.58000000e+00	1.58727793e-03	5.93918947e-05
2.58500000e+00	1.58492474e-03	5.89419449e-05
2.59000000e+00	1.57259473e-03	5.81982175e-05
2.59500000e+00	1.54789608e-03	5.75734618e-05
2.60000000e+00	1.55732236e-03	5.83821021e-05
2.60500000e+00	1.55718606e-03	5.96351767e-05
2.61000000e+00	1.54786727e-03	6.75886374e-05
2.61500000e+00	1.53854387e-03	7.42024792e-05
2.62000000e+00	1.53085628e-03	8.14417699e-05
2.62500000e+00	1.48778130e-03	8.56924018e-05
2.63000000e+00	1.49397508e-03	9.52653242e-05
2.63500000e+00	1.52242711e-03	1.07305839e-04
2.64000000e+00	1.55087176e-03	1.20035061e-04
2.64500000e+00	1.51533157e-03	1.25426284e-04
2.65000000e+00	1.54037208e-03	1.34610620e-04
2.65500000e+00	1.49724087e-03	1.40842410e-04
2.66000000e+00	1.53032003e-03	1.54106324e-04
2.66500000e+00	1.49125361e-03	1.68577876e-04
2.67000000e+00	1.46936653e-03	1.80495117e-04
2.67500000e+00	1.53517431e-03	2.19530180e-04
2.68000000e+00	1.46383566e-03	2.44213703e-04
2.68500000e+00	1.45868820e-03	3.23971173e-04
2.69000000e+00	1.62246876e-03	5.74547622e-04
2.69500000e+00	0.00000000e+00	0.00000000e+00
2.70000000e+00	0.00000000e+00	0.00000000e+00
