% Filename : WDL5_p7_00009_00004.h5
% Date & Time : 30-Oct-2025 14:38:26
% X-ray Energy (keV) : 13.30001
% Exposure Time (s) : 0.500
% Photodiode Value : 135155.000
% I0 of Sample : 0
% I0 of Standard : 1
% 
% q(A^-1)   I(q)    I(q)_SE
8.40000000e-01	0.00000000e+00	0.00000000e+00
8.45000000e-01	3.19716558e-03	5.60649096e-04
8.50000000e-01	2.88008617e-03	2.67120411e-04
8.55000000e-01	2.81848174e-03	2.30211440e-04
8.60000000e-01	2.80580511e-03	1.98632884e-04
8.65000000e-01	2.84518936e-03	1.85390189e-04
8.70000000e-01	2.83170958e-03	1.75815939e-04
8.75000000e-01	2.83040632e-03	1.69270861e-04
8.80000000e-01	2.83199034e-03	1.63561112e-04
8.85000000e-01	2.82246835e-03	1.54317565e-04
8.90000000e-01	2.83931478e-03	1.51805011e-04
8.95000000e-01	2.83330356e-03	1.47329896e-04
9.00000000e-01	2.85467879e-03	1.46873969e-04
9.05000000e-01	2.88638936e-03	1.42071266e-04
9.10000000e-01	2.89988531e-03	1.40046409e-04
9.15000000e-01	2.85631587e-03	1.35886349e-04
9.20000000e-01	2.91168825e-03	1.38333597e-04
9.25000000e-01	2.90572010e-03	1.32057013e-04
9.30000000e-01	2.89462128e-03	1.30189285e-04
9.35000000e-01	2.87363677e-03	1.26804156e-04
9.40000000e-01	2.91976021e-03	1.29250526e-04
9.45000000e-01	2.94974798e-03	1.27201616e-04
9.50000000e-01	2.93673317e-03	1.24798109e-04
9.55000000e-01	2.94969906e-03	1.23174816e-04
9.60000000e-01	2.94103141e-03	1.22928058e-04
9.65000000e-01	2.97842574e-03	1.22456763e-04
9.70000000e-01	2.97729713e-03	1.20379848e-04
9.75000000e-01	2.93479054e-03	1.17354928e-04
9.80000000e-01	2.98829334e-03	1.18531423e-04
9.85000000e-01	2.99313440e-03	1.18813510e-04
9.90000000e-01	3.00238081e-03	1.15483866e-04
9.95000000e-01	3.00971804e-03	1.15256330e-04
1.00000000e+00	3.00928034e-03	1.14633275e-04
1.00500000e+00	3.00129647e-03	1.14298833e-04
1.01000000e+00	2.98930664e-03	1.11552485e-04
1.01500000e+00	3.02696930e-03	1.11894084e-04
1.02000000e+00	3.00397541e-03	1.11048408e-04
1.02500000e+00	2.99345905e-03	1.09120551e-04
1.03000000e+00	2.99511711e-03	1.08801049e-04
1.03500000e+00	2.99200295e-03	1.07219751e-04
1.04000000e+00	2.98299458e-03	1.06197953e-04
1.04500000e+00	2.98645508e-03	1.06405452e-04
1.05000000e+00	2.98994511e-03	1.05847096e-04
1.05500000e+00	3.00022374e-03	1.04539899e-04
1.06000000e+00	2.97857491e-03	1.03465446e-04
1.06500000e+00	3.00705127e-03	1.04542887e-04
1.07000000e+00	2.99908057e-03	1.04180938e-04
1.07500000e+00	3.03979698e-03	1.04797986e-04
1.08000000e+00	3.01155879e-03	1.03190439e-04
1.08500000e+00	3.02802438e-03	1.03837571e-04
1.09000000e+00	3.02578829e-03	1.04340070e-04
1.09500000e+00	3.03629123e-03	1.02722832e-04
1.10000000e+00	3.06798169e-03	1.04439521e-04
1.10500000e+00	3.07563607e-03	1.05017469e-04
1.11000000e+00	3.08130827e-03	1.05225881e-04
1.11500000e+00	3.10061796e-03	1.05221056e-04
1.12000000e+00	3.12783824e-03	1.06488884e-04
1.12500000e+00	3.12888750e-03	1.06417152e-04
1.13000000e+00	3.13156763e-03	1.07668346e-04
1.13500000e+00	3.13695712e-03	1.06519606e-04
1.14000000e+00	3.14128557e-03	1.06501409e-04
1.14500000e+00	3.14220179e-03	1.07448929e-04
1.15000000e+00	3.16134163e-03	1.08603399e-04
1.15500000e+00	3.18406838e-03	1.08300881e-04
1.16000000e+00	3.19471022e-03	1.09006678e-04
1.16500000e+00	3.20554092e-03	1.09258842e-04
1.17000000e+00	3.18515676e-03	1.09894314e-04
1.17500000e+00	3.19841326e-03	1.08803835e-04
1.18000000e+00	3.22794485e-03	1.10242723e-04
1.18500000e+00	3.22687671e-03	1.10017448e-04
1.19000000e+00	3.23282276e-03	1.11505455e-04
1.19500000e+00	3.24707879e-03	1.10573318e-04
1.20000000e+00	3.25944230e-03	1.11593283e-04
1.20500000e+00	3.25454553e-03	1.11287600e-04
1.21000000e+00	3.24440940e-03	1.12330974e-04
1.21500000e+00	3.26829656e-03	1.11423432e-04
1.22000000e+00	3.26518217e-03	1.11428082e-04
1.22500000e+00	3.26902953e-03	1.11988877e-04
1.23000000e+00	3.29869766e-03	1.13931502e-04
1.23500000e+00	3.28664953e-03	1.12656710e-04
1.24000000e+00	3.27705456e-03	1.11865348e-04
1.24500000e+00	3.29232136e-03	1.13162966e-04
1.25000000e+00	3.30938723e-03	1.14418249e-04
1.25500000e+00	3.30687938e-03	1.13005560e-04
1.26000000e+00	3.30559505e-03	1.13629607e-04
1.26500000e+00	3.30498360e-03	1.13255847e-04
1.27000000e+00	3.31407504e-03	1.15175110e-04
1.27500000e+00	3.31392890e-03	1.14043338e-04
1.28000000e+00	3.33089370e-03	1.13830854e-04
1.28500000e+00	3.34902852e-03	1.15127333e-04
1.29000000e+00	3.34100247e-03	1.15889404e-04
1.29500000e+00	3.30342238e-03	1.13384608e-04
1.30000000e+00	3.32182301e-03	1.13824256e-04
1.30500000e+00	3.33118313e-03	1.14668953e-04
1.31000000e+00	3.31826365e-03	1.15607658e-04
1.31500000e+00	3.33211183e-03	1.14602701e-04
1.32000000e+00	3.33993488e-03	1.14766606e-04
1.32500000e+00	3.35108264e-03	1.15446237e-04
1.33000000e+00	3.34373324e-03	1.16600745e-04
1.33500000e+00	3.38127243e-03	1.16352872e-04
1.34000000e+00	3.34673309e-03	1.15250266e-04
1.34500000e+00	3.34362794e-03	1.15670246e-04
1.35000000e+00	3.33360987e-03	1.16249608e-04
1.35500000e+00	3.37423431e-03	1.16149764e-04
1.36000000e+00	3.37078624e-03	1.15797935e-04
1.36500000e+00	3.35072804e-03	1.15504820e-04
1.37000000e+00	3.36422052e-03	1.17737678e-04
1.37500000e+00	3.37308337e-03	1.16195966e-04
1.38000000e+00	3.39129308e-03	1.16958257e-04
1.38500000e+00	3.37262271e-03	1.17091684e-04
1.39000000e+00	3.37725852e-03	1.17970618e-04
1.39500000e+00	3.39802369e-03	1.16981203e-04
1.40000000e+00	3.40699775e-03	1.20904979e-04
1.40500000e+00	3.38175892e-03	1.29045257e-04
1.41000000e+00	3.37355863e-03	1.34770467e-04
1.41500000e+00	3.37262856e-03	1.39677058e-04
1.42000000e+00	3.35505516e-03	1.44588244e-04
1.42500000e+00	3.32326005e-03	1.47442082e-04
1.43000000e+00	3.34175650e-03	1.53864616e-04
1.43500000e+00	3.32843040e-03	1.57892088e-04
1.44000000e+00	3.30275884e-03	1.62840386e-04
1.44500000e+00	3.30624994e-03	1.67294022e-04
1.45000000e+00	3.38422151e-03	1.65601702e-04
1.45500000e+00	3.40402233e-03	1.49517365e-04
1.46000000e+00	3.34821068e-03	1.43619114e-04
1.46500000e+00	3.32604695e-03	1.40231826e-04
1.47000000e+00	3.34081492e-03	1.40445475e-04
1.47500000e+00	3.31851905e-03	1.35584321e-04
1.48000000e+00	3.36904472e-03	1.35984908e-04
1.48500000e+00	3.35133892e-03	1.35416626e-04
1.49000000e+00	3.31037791e-03	1.34094310e-04
1.49500000e+00	3.34652293e-03	1.32706731e-04
1.50000000e+00	3.33919284e-03	1.31903582e-04
1.50500000e+00	3.33715473e-03	1.32541146e-04
1.51000000e+00	3.35645848e-03	1.33591981e-04
1.51500000e+00	3.33094329e-03	1.30362471e-04
1.52000000e+00	3.38951888e-03	1.32374256e-04
1.52500000e+00	3.35197346e-03	1.30644328e-04
1.53000000e+00	3.35041479e-03	1.31308858e-04
1.53500000e+00	3.32285821e-03	1.26547869e-04
1.54000000e+00	3.33030421e-03	1.26662567e-04
1.54500000e+00	3.30023613e-03	1.25244344e-04
1.55000000e+00	3.28402765e-03	1.24340083e-04
1.55500000e+00	3.25999094e-03	1.20585858e-04
1.56000000e+00	3.25795717e-03	1.20801425e-04
1.56500000e+00	3.24759108e-03	1.19812846e-04
1.57000000e+00	3.21820168e-03	1.17832270e-04
1.57500000e+00	3.19213920e-03	1.14786079e-04
1.58000000e+00	3.20203135e-03	1.14815589e-04
1.58500000e+00	3.20370669e-03	1.14925962e-04
1.59000000e+00	3.17977225e-03	1.14155677e-04
1.59500000e+00	3.16110772e-03	1.11321079e-04
1.60000000e+00	3.17479889e-03	1.11670442e-04
1.60500000e+00	3.15752924e-03	1.11211129e-04
1.61000000e+00	3.14564275e-03	1.10272159e-04
1.61500000e+00	3.15868310e-03	1.09764430e-04
1.62000000e+00	3.11811382e-03	1.08815639e-04
1.62500000e+00	3.14278767e-03	1.10970762e-04
1.63000000e+00	3.13965250e-03	1.09606135e-04
1.63500000e+00	3.11256418e-03	1.08748131e-04
1.64000000e+00	3.12484352e-03	1.09137970e-04
1.64500000e+00	3.09978524e-03	1.09486038e-04
1.65000000e+00	3.09989705e-03	1.08325272e-04
1.65500000e+00	3.09537031e-03	1.08040775e-04
1.66000000e+00	3.10734091e-03	1.08586338e-04
1.66500000e+00	3.08066742e-03	1.09455666e-04
1.67000000e+00	3.06722940e-03	1.06682271e-04
1.67500000e+00	3.07010817e-03	1.07059911e-04
1.68000000e+00	3.05552813e-03	1.06895119e-04
1.68500000e+00	3.04966106e-03	1.08407532e-04
1.69000000e+00	3.05334995e-03	1.06459131e-04
1.69500000e+00	3.03439468e-03	1.05608868e-04
1.70000000e+00	3.03779977e-03	1.06970881e-04
1.70500000e+00	3.02961330e-03	1.07118589e-04
1.71000000e+00	3.05147333e-03	1.06551555e-04
1.71500000e+00	3.02989783e-03	1.05737355e-04
1.72000000e+00	3.01855647e-03	1.06158840e-04
1.72500000e+00	3.00679357e-03	1.06414048e-04
1.73000000e+00	3.00903856e-03	1.05117560e-04
1.73500000e+00	2.99090739e-03	1.04776975e-04
1.74000000e+00	2.96153817e-03	1.04021153e-04
1.74500000e+00	2.94746229e-03	1.04712956e-04
1.75000000e+00	2.96002158e-03	1.03192653e-04
1.75500000e+00	2.95085273e-03	1.03449560e-04
1.76000000e+00	2.92105120e-03	1.02401769e-04
1.76500000e+00	2.93164523e-03	1.04060043e-04
1.77000000e+00	2.90918627e-03	1.01558512e-04
1.77500000e+00	2.89475304e-03	1.01339103e-04
1.78000000e+00	2.91584733e-03	1.02352726e-04
1.78500000e+00	2.90665944e-03	1.03133349e-04
1.79000000e+00	2.90298039e-03	1.01301550e-04
1.79500000e+00	2.87861189e-03	1.00707199e-04
1.80000000e+00	2.88276294e-03	1.01437585e-04
1.80500000e+00	2.86978357e-03	1.01654010e-04
1.81000000e+00	2.86414348e-03	9.99537256e-05
1.81500000e+00	2.83085968e-03	9.89299402e-05
1.82000000e+00	2.83684384e-03	9.97477977e-05
1.82500000e+00	2.82200494e-03	9.98319916e-05
1.83000000e+00	2.81698089e-03	9.84860085e-05
1.83500000e+00	2.82279191e-03	9.87989991e-05
1.84000000e+00	2.79031273e-03	9.82460264e-05
1.84500000e+00	2.81045629e-03	9.93968846e-05
1.85000000e+00	2.79313137e-03	9.77302443e-05
1.85500000e+00	2.77512550e-03	9.70715744e-05
1.86000000e+00	2.79250058e-03	9.84453036e-05
1.86500000e+00	2.75860200e-03	9.75011884e-05
1.87000000e+00	2.76585905e-03	9.66051211e-05
1.87500000e+00	2.74603836e-03	9.62921276e-05
1.88000000e+00	2.73516910e-03	9.63864192e-05
1.88500000e+00	2.72486604e-03	9.65363491e-05
1.89000000e+00	2.71710751e-03	9.48977215e-05
1.89500000e+00	2.69548304e-03	9.46611365e-05
1.90000000e+00	2.72149892e-03	9.58478471e-05
1.90500000e+00	2.69918747e-03	9.51808685e-05
1.91000000e+00	2.66668469e-03	9.34105090e-05
1.91500000e+00	2.66711302e-03	9.35056028e-05
1.92000000e+00	2.66401733e-03	9.38466165e-05
1.92500000e+00	2.66646276e-03	9.40415966e-05
1.93000000e+00	2.64377227e-03	9.23957742e-05
1.93500000e+00	2.62869112e-03	9.21372889e-05
1.94000000e+00	2.62200934e-03	9.26407310e-05
1.94500000e+00	2.60458430e-03	9.17195717e-05
1.95000000e+00	2.59867222e-03	9.07160817e-05
1.95500000e+00	2.60785548e-03	9.13903593e-05
1.96000000e+00	2.60982116e-03	9.21128543e-05
1.96500000e+00	2.57129656e-03	9.07489604e-05
1.97000000e+00	2.55734360e-03	8.92417532e-05
1.97500000e+00	2.56628486e-03	9.01151760e-05
1.98000000e+00	2.55366218e-03	9.00961862e-05
1.98500000e+00	2.55582604e-03	9.02858393e-05
1.99000000e+00	2.53798027e-03	8.85975798e-05
1.99500000e+00	2.53825001e-03	8.89290108e-05
2.00000000e+00	2.53209880e-03	8.93543807e-05
2.00500000e+00	2.55420696e-03	9.03382088e-05
2.01000000e+00	2.53387519e-03	9.82805446e-05
2.01500000e+00	2.50878881e-03	1.03336309e-04
2.02000000e+00	2.46397256e-03	1.08189192e-04
2.02500000e+00	2.48936247e-03	1.13719343e-04
2.03000000e+00	2.43221545e-03	1.17581802e-04
2.03500000e+00	2.46405654e-03	1.24466117e-04
2.04000000e+00	2.43755061e-03	1.28703103e-04
2.04500000e+00	2.39377538e-03	1.32893853e-04
2.05000000e+00	2.36649553e-03	1.37914976e-04
2.05500000e+00	2.41304180e-03	1.37859969e-04
2.06000000e+00	2.43269337e-03	1.21043979e-04
2.06500000e+00	2.43713490e-03	1.15754236e-04
2.07000000e+00	2.42849564e-03	1.09112643e-04
2.07500000e+00	2.40431503e-03	1.05781941e-04
2.08000000e+00	2.40841751e-03	1.05697253e-04
2.08500000e+00	2.39799227e-03	1.04278240e-04
2.09000000e+00	2.37910701e-03	1.00341923e-04
2.09500000e+00	2.40110486e-03	1.00337927e-04
2.10000000e+00	2.38303714e-03	9.89006155e-05
2.10500000e+00	2.37751091e-03	9.82575494e-05
2.11000000e+00	2.35964145e-03	9.39922713e-05
2.11500000e+00	2.35813119e-03	9.30497308e-05
2.12000000e+00	2.34912408e-03	9.21634180e-05
2.12500000e+00	2.30603728e-03	9.02404589e-05
2.13000000e+00	2.29393514e-03	8.61614870e-05
2.13500000e+00	2.26309669e-03	8.39335341e-05
2.14000000e+00	2.27893226e-03	8.37757986e-05
2.14500000e+00	2.24892058e-03	8.27736783e-05
2.15000000e+00	2.24912252e-03	8.01576564e-05
2.15500000e+00	2.23034110e-03	7.96159168e-05
2.16000000e+00	2.25495681e-03	8.00725505e-05
2.16500000e+00	2.23915493e-03	8.00528161e-05
2.17000000e+00	2.20772189e-03	7.70854163e-05
2.17500000e+00	2.21849455e-03	7.75669154e-05
2.18000000e+00	2.20677058e-03	7.74046123e-05
2.18500000e+00	2.16946545e-03	7.65214581e-05
2.19000000e+00	2.16655164e-03	7.62376638e-05
2.19500000e+00	2.14201971e-03	7.49356353e-05
2.20000000e+00	2.13856973e-03	7.50584053e-05
2.20500000e+00	2.11887940e-03	7.45681300e-05
2.21000000e+00	2.12366195e-03	7.50644541e-05
2.21500000e+00	2.10702450e-03	7.36229302e-05
2.22000000e+00	2.08608633e-03	7.29099557e-05
2.22500000e+00	2.06728786e-03	7.27037921e-05
2.23000000e+00	2.06624362e-03	7.31685104e-05
2.23500000e+00	2.05085875e-03	7.16704190e-05
2.24000000e+00	2.04130979e-03	7.13542147e-05
2.24500000e+00	2.02241489e-03	7.12216204e-05
2.25000000e+00	2.02837634e-03	7.19888702e-05
2.25500000e+00	2.00273324e-03	6.98476677e-05
2.26000000e+00	1.99151692e-03	6.96764237e-05
2.26500000e+00	1.99550302e-03	7.00371495e-05
2.27000000e+00	1.98132109e-03	7.05704666e-05
2.27500000e+00	1.95668698e-03	6.82332677e-05
2.28000000e+00	1.92121987e-03	6.71286614e-05
2.28500000e+00	1.92754829e-03	6.78000436e-05
2.29000000e+00	1.93439851e-03	6.83582797e-05
2.29500000e+00	1.91119613e-03	6.73192590e-05
2.30000000e+00	1.90599693e-03	6.65089888e-05
2.30500000e+00	1.88844383e-03	6.60189915e-05
2.31000000e+00	1.87458792e-03	6.58853316e-05
2.31500000e+00	1.86018658e-03	6.59921230e-05
2.32000000e+00	1.85485514e-03	6.43933323e-05
2.32500000e+00	1.84435681e-03	6.45578406e-05
2.33000000e+00	1.82375463e-03	6.39376517e-05
2.33500000e+00	1.82724103e-03	6.48240650e-05
2.34000000e+00	1.81101129e-03	6.31576275e-05
2.34500000e+00	1.80276636e-03	6.28785720e-05
2.35000000e+00	1.79779193e-03	6.29770460e-05
2.35500000e+00	1.77695492e-03	6.29256987e-05
2.36000000e+00	1.76675316e-03	6.18343978e-05
2.36500000e+00	1.75563876e-03	6.13003560e-05
2.37000000e+00	1.74677926e-03	6.10694194e-05
2.37500000e+00	1.74944184e-03	6.16123902e-05
2.38000000e+00	1.72847327e-03	6.13318457e-05
2.38500000e+00	1.73458605e-03	6.06142912e-05
2.39000000e+00	1.72022460e-03	6.01855201e-05
2.39500000e+00	1.70108659e-03	5.98930230e-05
2.40000000e+00	1.69928007e-03	6.07472331e-05
2.40500000e+00	1.69555871e-03	5.94303978e-05
2.41000000e+00	1.68552707e-03	5.91835535e-05
2.41500000e+00	1.67877261e-03	5.89475699e-05
2.42000000e+00	1.66517639e-03	5.93661348e-05
2.42500000e+00	1.69935776e-03	6.05079745e-05
2.43000000e+00	1.66519499e-03	5.86763455e-05
2.43500000e+00	1.63624886e-03	5.78376179e-05
2.44000000e+00	1.63010518e-03	5.77670282e-05
2.44500000e+00	1.62957100e-03	5.85169892e-05
2.45000000e+00	1.59417701e-03	5.62184724e-05
2.45500000e+00	1.57851583e-03	5.58063142e-05
2.46000000e+00	1.59110094e-03	5.65417779e-05
2.46500000e+00	1.55790404e-03	5.59958034e-05
2.47000000e+00	1.54677333e-03	5.50688690e-05
2.47500000e+00	1.55328589e-03	5.49867203e-05
2.48000000e+00	1.55421980e-03	5.54843404e-05
2.48500000e+00	1.54912898e-03	5.53217920e-05
2.49000000e+00	1.52215949e-03	5.51023943e-05
2.49500000e+00	1.51779201e-03	5.39070565e-05
2.50000000e+00	1.51773981e-03	5.40699354e-05
2.50500000e+00	1.49654753e-03	5.35863198e-05
2.51000000e+00	1.49253890e-03	5.38130303e-05
2.51500000e+00	1.48992656e-03	5.38132389e-05
2.52000000e+00	1.47310696e-03	5.27990905e-05
2.52500000e+00	1.47788012e-03	5.31099890e-05
2.53000000e+00	1.45791344e-03	5.30065262e-05
2.53500000e+00	1.45771588e-03	5.35203480e-05
2.54000000e+00	1.44273603e-03	5.21355883e-05
2.54500000e+00	1.43575988e-03	5.21449287e-05
2.55000000e+00	1.44836723e-03	5.27868269e-05
2.55500000e+00	1.42559733e-03	5.24132893e-05
2.56000000e+00	1.39947990e-03	5.17470847e-05
2.56500000e+00	1.42000136e-03	5.20140841e-05
2.57000000e+00	1.40070919e-03	5.15177563e-05
2.57500000e+00	1.40019651e-03	5.16780767e-05
2.58000000e+00	1.37194059e-03	5.15297584e-05
2.58500000e+00	1.38910083e-03	5.16788861e-05
2.59000000e+00	1.38255083e-03	5.12598441e-05
2.59500000e+00	1.35741437e-03	5.05135813e-05
2.60000000e+00	1.36754241e-03	5.13175345e-05
2.60500000e+00	1.37298675e-03	5.26473325e-05
2.61000000e+00	1.36092693e-03	5.94579502e-05
2.61500000e+00	1.33514006e-03	6.45630516e-05
2.62000000e+00	1.33668960e-03	7.12021943e-05
2.62500000e+00	1.31554978e-03	7.58363464e-05
2.63000000e+00	1.30016995e-03	8.26118395e-05
2.63500000e+00	1.32595473e-03	9.34453619e-05
2.64000000e+00	1.36354892e-03	1.05622608e-04
2.64500000e+00	1.32820724e-03	1.09926313e-04
2.65000000e+00	1.33217920e-03	1.16750215e-04
2.65500000e+00	1.29953948e-03	1.22667414e-04
2.66000000e+00	1.32603115e-03	1.34634890e-04
2.66500000e+00	1.28065664e-03	1.45560530e-04
2.67000000e+00	1.29630108e-03	1.59517263e-04
2.67500000e+00	1.29719843e-03	1.86161334e-04
2.68000000e+00	1.24796253e-03	2.07481295e-04
2.68500000e+00	1.14671414e-03	2.54389814e-04
2.69000000e+00	1.36759685e-03	4.93699010e-04
2.69500000e+00	0.00000000e+00	0.00000000e+00
2.70000000e+00	0.00000000e+00	0.00000000e+00
