% Filename : WDL5_p7_00023_00030.h5
% Date & Time : 30-Oct-2025 16:53:36
% X-ray Energy (keV) : 13.30001
% Exposure Time (s) : 0.500
% Photodiode Value : 140918.000
% I0 of Sample : 0
% I0 of Standard : 1
% 
% q(A^-1)   I(q)    I(q)_SE
8.40000000e-01	0.00000000e+00	0.00000000e+00
8.45000000e-01	2.94177581e-03	5.15323481e-04
8.50000000e-01	2.78938035e-03	2.58898339e-04
8.55000000e-01	2.74131085e-03	2.24255918e-04
8.60000000e-01	2.69458321e-03	1.90383644e-04
8.65000000e-01	2.72375973e-03	1.77241593e-04
8.70000000e-01	2.69435348e-03	1.67313916e-04
8.75000000e-01	2.74671477e-03	1.64273334e-04
8.80000000e-01	2.70910172e-03	1.56517149e-04
8.85000000e-01	2.74443453e-03	1.49921285e-04
8.90000000e-01	2.74070562e-03	1.46598246e-04
8.95000000e-01	2.74256184e-03	1.42480416e-04
9.00000000e-01	2.75765860e-03	1.41921692e-04
9.05000000e-01	2.76705718e-03	1.36200146e-04
9.10000000e-01	2.77275362e-03	1.34084161e-04
9.15000000e-01	2.74736246e-03	1.30802963e-04
9.20000000e-01	2.76611779e-03	1.31559904e-04
9.25000000e-01	2.80096850e-03	1.27317785e-04
9.30000000e-01	2.78021374e-03	1.25089177e-04
9.35000000e-01	2.80245439e-03	1.23515382e-04
9.40000000e-01	2.81317939e-03	1.24503106e-04
9.45000000e-01	2.79396750e-03	1.20430594e-04
9.50000000e-01	2.79409495e-03	1.18867970e-04
9.55000000e-01	2.84923278e-03	1.18831551e-04
9.60000000e-01	2.82494291e-03	1.18033578e-04
9.65000000e-01	2.84026068e-03	1.16762097e-04
9.70000000e-01	2.83996855e-03	1.14851530e-04
9.75000000e-01	2.83426168e-03	1.13335709e-04
9.80000000e-01	2.85620589e-03	1.13184609e-04
9.85000000e-01	2.83035714e-03	1.12292638e-04
9.90000000e-01	2.85315928e-03	1.09957361e-04
9.95000000e-01	2.86145485e-03	1.09649182e-04
1.00000000e+00	2.84711939e-03	1.08517557e-04
1.00500000e+00	2.83285412e-03	1.08001481e-04
1.01000000e+00	2.86574552e-03	1.06934565e-04
1.01500000e+00	2.87893981e-03	1.06405426e-04
1.02000000e+00	2.86591091e-03	1.05944036e-04
1.02500000e+00	2.84756875e-03	1.03933808e-04
1.03000000e+00	2.85032235e-03	1.03626639e-04
1.03500000e+00	2.84471718e-03	1.02061981e-04
1.04000000e+00	2.84724068e-03	1.01425840e-04
1.04500000e+00	2.83597837e-03	1.01119306e-04
1.05000000e+00	2.83662280e-03	1.00616381e-04
1.05500000e+00	2.82025920e-03	9.83521244e-05
1.06000000e+00	2.83587869e-03	9.87977732e-05
1.06500000e+00	2.84656537e-03	9.92091695e-05
1.07000000e+00	2.85273590e-03	9.92198691e-05
1.07500000e+00	2.85810710e-03	9.85621572e-05
1.08000000e+00	2.86449866e-03	9.84101184e-05
1.08500000e+00	2.87856739e-03	9.89095203e-05
1.09000000e+00	2.86376549e-03	9.88380111e-05
1.09500000e+00	2.87125272e-03	9.71791392e-05
1.10000000e+00	2.90783504e-03	9.90237805e-05
1.10500000e+00	2.92006641e-03	9.97491872e-05
1.11000000e+00	2.88180211e-03	9.85979224e-05
1.11500000e+00	2.93273150e-03	9.95675154e-05
1.12000000e+00	2.92875494e-03	9.99855193e-05
1.12500000e+00	2.94313306e-03	1.00152207e-04
1.13000000e+00	2.95100249e-03	1.01628978e-04
1.13500000e+00	2.94822700e-03	1.00273233e-04
1.14000000e+00	2.95167219e-03	1.00226250e-04
1.14500000e+00	2.96604583e-03	1.01525672e-04
1.15000000e+00	2.96384028e-03	1.02039019e-04
1.15500000e+00	2.96947570e-03	1.01038682e-04
1.16000000e+00	2.98642098e-03	1.02017132e-04
1.16500000e+00	2.99465410e-03	1.02217852e-04
1.17000000e+00	2.97482257e-03	1.02796230e-04
1.17500000e+00	2.99606967e-03	1.01947408e-04
1.18000000e+00	2.99999005e-03	1.02560652e-04
1.18500000e+00	3.00088559e-03	1.02521578e-04
1.19000000e+00	3.01020144e-03	1.03973139e-04
1.19500000e+00	3.02670669e-03	1.03200642e-04
1.20000000e+00	3.03749189e-03	1.04208803e-04
1.20500000e+00	3.05080794e-03	1.04382674e-04
1.21000000e+00	3.04219387e-03	1.05470657e-04
1.21500000e+00	3.04720470e-03	1.03913832e-04
1.22000000e+00	3.05777708e-03	1.04393679e-04
1.22500000e+00	3.06576171e-03	1.05140256e-04
1.23000000e+00	3.02919274e-03	1.04686648e-04
1.23500000e+00	3.06253335e-03	1.05097266e-04
1.24000000e+00	3.07081037e-03	1.04912719e-04
1.24500000e+00	3.06089984e-03	1.05315415e-04
1.25000000e+00	3.05443186e-03	1.05824298e-04
1.25500000e+00	3.06524925e-03	1.04810841e-04
1.26000000e+00	3.05766128e-03	1.05227428e-04
1.26500000e+00	3.08157923e-03	1.05668552e-04
1.27000000e+00	3.09195729e-03	1.07552518e-04
1.27500000e+00	3.10738288e-03	1.07033249e-04
1.28000000e+00	3.06981898e-03	1.05024349e-04
1.28500000e+00	3.09160788e-03	1.06547341e-04
1.29000000e+00	3.08083419e-03	1.06962463e-04
1.29500000e+00	3.09252793e-03	1.06335571e-04
1.30000000e+00	3.09358413e-03	1.06105183e-04
1.30500000e+00	3.09924590e-03	1.06790149e-04
1.31000000e+00	3.08408613e-03	1.07514371e-04
1.31500000e+00	3.09148211e-03	1.06431706e-04
1.32000000e+00	3.11154682e-03	1.06927902e-04
1.32500000e+00	3.10334465e-03	1.07055317e-04
1.33000000e+00	3.10801040e-03	1.08389754e-04
1.33500000e+00	3.09740392e-03	1.06557076e-04
1.34000000e+00	3.11051106e-03	1.07131312e-04
1.34500000e+00	3.10953464e-03	1.07394744e-04
1.35000000e+00	3.08131607e-03	1.07553412e-04
1.35500000e+00	3.09731171e-03	1.06756359e-04
1.36000000e+00	3.09438344e-03	1.06356885e-04
1.36500000e+00	3.09341449e-03	1.06694800e-04
1.37000000e+00	3.09152271e-03	1.08254089e-04
1.37500000e+00	3.09759691e-03	1.06701439e-04
1.38000000e+00	3.10772367e-03	1.07321369e-04
1.38500000e+00	3.11197073e-03	1.08004181e-04
1.39000000e+00	3.09235763e-03	1.08142713e-04
1.39500000e+00	3.08158031e-03	1.06147865e-04
1.40000000e+00	3.13447184e-03	1.11313700e-04
1.40500000e+00	3.10359989e-03	1.18577601e-04
1.41000000e+00	3.03880614e-03	1.21514717e-04
1.41500000e+00	3.04486635e-03	1.26243115e-04
1.42000000e+00	3.04754958e-03	1.31475391e-04
1.42500000e+00	3.04690777e-03	1.35350445e-04
1.43000000e+00	3.01368211e-03	1.38883291e-04
1.43500000e+00	3.00162430e-03	1.42610394e-04
1.44000000e+00	2.98869533e-03	1.47534589e-04
1.44500000e+00	2.96757084e-03	1.50242288e-04
1.45000000e+00	3.05850849e-03	1.49991963e-04
1.45500000e+00	3.07851335e-03	1.35323766e-04
1.46000000e+00	3.08167070e-03	1.32368529e-04
1.46500000e+00	3.04700641e-03	1.28520114e-04
1.47000000e+00	3.05931764e-03	1.28768156e-04
1.47500000e+00	3.05101132e-03	1.24651647e-04
1.48000000e+00	3.05464219e-03	1.23518512e-04
1.48500000e+00	3.05437409e-03	1.23632966e-04
1.49000000e+00	3.03127420e-03	1.22856612e-04
1.49500000e+00	3.04965057e-03	1.21038727e-04
1.50000000e+00	3.07685482e-03	1.21642580e-04
1.50500000e+00	3.07123250e-03	1.22006072e-04
1.51000000e+00	3.06481971e-03	1.22060384e-04
1.51500000e+00	3.09497151e-03	1.21226508e-04
1.52000000e+00	3.10253962e-03	1.21059796e-04
1.52500000e+00	3.08598989e-03	1.20263860e-04
1.53000000e+00	3.07946447e-03	1.20722698e-04
1.53500000e+00	3.06703997e-03	1.16821587e-04
1.54000000e+00	3.07433806e-03	1.16926685e-04
1.54500000e+00	3.04238869e-03	1.15475762e-04
1.55000000e+00	3.05056928e-03	1.15499323e-04
1.55500000e+00	3.03018543e-03	1.12102410e-04
1.56000000e+00	3.03026966e-03	1.12366981e-04
1.56500000e+00	2.98219976e-03	1.10042495e-04
1.57000000e+00	2.96070130e-03	1.08466744e-04
1.57500000e+00	2.98865145e-03	1.07503265e-04
1.58000000e+00	2.96049874e-03	1.06298522e-04
1.58500000e+00	2.96908070e-03	1.06661131e-04
1.59000000e+00	2.95432450e-03	1.06101061e-04
1.59500000e+00	2.95570660e-03	1.04197800e-04
1.60000000e+00	2.92791232e-03	1.03101855e-04
1.60500000e+00	2.93515503e-03	1.03387363e-04
1.61000000e+00	2.90936903e-03	1.02145606e-04
1.61500000e+00	2.90609714e-03	1.01066518e-04
1.62000000e+00	2.88993298e-03	1.00910126e-04
1.62500000e+00	2.90650659e-03	1.02630078e-04
1.63000000e+00	2.89849500e-03	1.01294004e-04
1.63500000e+00	2.88985900e-03	1.00957683e-04
1.64000000e+00	2.86691257e-03	1.00163745e-04
1.64500000e+00	2.88883652e-03	1.02077497e-04
1.65000000e+00	2.84799323e-03	9.95419146e-05
1.65500000e+00	2.85650140e-03	9.97349247e-05
1.66000000e+00	2.85209627e-03	9.97244426e-05
1.66500000e+00	2.83745922e-03	1.00882950e-04
1.67000000e+00	2.82766829e-03	9.84128209e-05
1.67500000e+00	2.83331268e-03	9.88701967e-05
1.68000000e+00	2.81554655e-03	9.85684881e-05
1.68500000e+00	2.80335791e-03	9.97265236e-05
1.69000000e+00	2.81857016e-03	9.83737529e-05
1.69500000e+00	2.81572646e-03	9.82252359e-05
1.70000000e+00	2.78985389e-03	9.83375457e-05
1.70500000e+00	2.78578700e-03	9.86252721e-05
1.71000000e+00	2.78131270e-03	9.71778373e-05
1.71500000e+00	2.80060089e-03	9.77583731e-05
1.72000000e+00	2.77771369e-03	9.78051963e-05
1.72500000e+00	2.76072531e-03	9.77831357e-05
1.73000000e+00	2.76817816e-03	9.67571995e-05
1.73500000e+00	2.75180462e-03	9.64312037e-05
1.74000000e+00	2.73852819e-03	9.62665671e-05
1.74500000e+00	2.73899915e-03	9.72904809e-05
1.75000000e+00	2.73064577e-03	9.51722936e-05
1.75500000e+00	2.71466498e-03	9.52294779e-05
1.76000000e+00	2.71578898e-03	9.52197303e-05
1.76500000e+00	2.71786528e-03	9.65646658e-05
1.77000000e+00	2.70167961e-03	9.43309692e-05
1.77500000e+00	2.68801794e-03	9.40913615e-05
1.78000000e+00	2.68963261e-03	9.45448846e-05
1.78500000e+00	2.66305109e-03	9.46024457e-05
1.79000000e+00	2.67108291e-03	9.31758356e-05
1.79500000e+00	2.66561808e-03	9.32976214e-05
1.80000000e+00	2.65520994e-03	9.35092658e-05
1.80500000e+00	2.65767959e-03	9.42661872e-05
1.81000000e+00	2.64088202e-03	9.22706856e-05
1.81500000e+00	2.62893580e-03	9.19115304e-05
1.82000000e+00	2.63486325e-03	9.27301722e-05
1.82500000e+00	2.61416225e-03	9.25929373e-05
1.83000000e+00	2.61154603e-03	9.12646569e-05
1.83500000e+00	2.61471841e-03	9.15212621e-05
1.84000000e+00	2.60071195e-03	9.15283008e-05
1.84500000e+00	2.59467198e-03	9.18792672e-05
1.85000000e+00	2.57985483e-03	9.02690576e-05
1.85500000e+00	2.59037002e-03	9.06936996e-05
1.86000000e+00	2.56656229e-03	9.05770445e-05
1.86500000e+00	2.55789739e-03	9.03421836e-05
1.87000000e+00	2.55215944e-03	8.92476886e-05
1.87500000e+00	2.55192036e-03	8.94512543e-05
1.88000000e+00	2.55875661e-03	9.01221862e-05
1.88500000e+00	2.53635661e-03	8.98769437e-05
1.89000000e+00	2.50156532e-03	8.73667045e-05
1.89500000e+00	2.50240632e-03	8.79169524e-05
1.90000000e+00	2.49927367e-03	8.80744044e-05
1.90500000e+00	2.51259527e-03	8.85631130e-05
1.91000000e+00	2.48309562e-03	8.70751820e-05
1.91500000e+00	2.47132463e-03	8.66245355e-05
1.92000000e+00	2.47042389e-03	8.70950736e-05
1.92500000e+00	2.46873210e-03	8.70912028e-05
1.93000000e+00	2.44968305e-03	8.56118035e-05
1.93500000e+00	2.42943470e-03	8.52676762e-05
1.94000000e+00	2.41364271e-03	8.53669516e-05
1.94500000e+00	2.40525337e-03	8.48238192e-05
1.95000000e+00	2.40737180e-03	8.41002498e-05
1.95500000e+00	2.40735853e-03	8.45276995e-05
1.96000000e+00	2.38404364e-03	8.42857807e-05
1.96500000e+00	2.38252146e-03	8.40919697e-05
1.97000000e+00	2.37870129e-03	8.29938586e-05
1.97500000e+00	2.39396973e-03	8.41150237e-05
1.98000000e+00	2.34906530e-03	8.29144925e-05
1.98500000e+00	2.35225562e-03	8.32001995e-05
1.99000000e+00	2.34364527e-03	8.17323956e-05
1.99500000e+00	2.35198891e-03	8.25308445e-05
2.00000000e+00	2.31192835e-03	8.16531115e-05
2.00500000e+00	2.36530449e-03	8.37072188e-05
2.01000000e+00	2.33921688e-03	9.08677368e-05
2.01500000e+00	2.30642860e-03	9.51262592e-05
2.02000000e+00	2.27529426e-03	1.00031077e-04
2.02500000e+00	2.29485428e-03	1.04781207e-04
2.03000000e+00	2.25816698e-03	1.09319909e-04
2.03500000e+00	2.25134140e-03	1.13776112e-04
2.04000000e+00	2.23595788e-03	1.18226319e-04
2.04500000e+00	2.22214878e-03	1.23716899e-04
2.05000000e+00	2.19464594e-03	1.28052693e-04
2.05500000e+00	2.23280639e-03	1.27924233e-04
2.06000000e+00	2.25047757e-03	1.11888754e-04
2.06500000e+00	2.21327157e-03	1.05257982e-04
2.07000000e+00	2.21027149e-03	9.95526116e-05
2.07500000e+00	2.21143022e-03	9.75098337e-05
2.08000000e+00	2.19456797e-03	9.62740084e-05
2.08500000e+00	2.20143966e-03	9.59188213e-05
2.09000000e+00	2.21425878e-03	9.34514894e-05
2.09500000e+00	2.19727840e-03	9.18635127e-05
2.10000000e+00	2.19471610e-03	9.10816393e-05
2.10500000e+00	2.18434554e-03	9.03186021e-05
2.11000000e+00	2.16315857e-03	8.61997868e-05
2.11500000e+00	2.15732599e-03	8.51951713e-05
2.12000000e+00	2.15261090e-03	8.44388468e-05
2.12500000e+00	2.11772294e-03	8.28476719e-05
2.13000000e+00	2.09963743e-03	7.88311341e-05
2.13500000e+00	2.10168381e-03	7.79461975e-05
2.14000000e+00	2.08084343e-03	7.64655566e-05
2.14500000e+00	2.06570025e-03	7.61044035e-05
2.15000000e+00	2.05514877e-03	7.32322868e-05
2.15500000e+00	2.04694507e-03	7.31667810e-05
2.16000000e+00	2.04354808e-03	7.26521671e-05
2.16500000e+00	2.04234423e-03	7.30810059e-05
2.17000000e+00	2.03550521e-03	7.11367179e-05
2.17500000e+00	2.02439775e-03	7.08937967e-05
2.18000000e+00	2.01718564e-03	7.08610909e-05
2.18500000e+00	1.98248054e-03	6.98957089e-05
2.19000000e+00	1.98874266e-03	6.99645792e-05
2.19500000e+00	1.98458476e-03	6.95545442e-05
2.20000000e+00	1.95736315e-03	6.87128275e-05
2.20500000e+00	1.95608677e-03	6.88080933e-05
2.21000000e+00	1.93352000e-03	6.83574016e-05
2.21500000e+00	1.93988272e-03	6.78918582e-05
2.22000000e+00	1.91088669e-03	6.67364005e-05
2.22500000e+00	1.91984550e-03	6.76515652e-05
2.23000000e+00	1.88737111e-03	6.69390687e-05
2.23500000e+00	1.89074259e-03	6.60585523e-05
2.24000000e+00	1.90069208e-03	6.64826028e-05
2.24500000e+00	1.88127565e-03	6.63092453e-05
2.25000000e+00	1.86693514e-03	6.63697727e-05
2.25500000e+00	1.86218329e-03	6.49129767e-05
2.26000000e+00	1.83641538e-03	6.42835734e-05
2.26500000e+00	1.82780769e-03	6.41982138e-05
2.27000000e+00	1.81609622e-03	6.47081846e-05
2.27500000e+00	1.81188640e-03	6.32365746e-05
2.28000000e+00	1.79197012e-03	6.26451821e-05
2.28500000e+00	1.78409284e-03	6.26821587e-05
2.29000000e+00	1.75808114e-03	6.21395608e-05
2.29500000e+00	1.78228882e-03	6.28268934e-05
2.30000000e+00	1.77521733e-03	6.19972618e-05
2.30500000e+00	1.75215270e-03	6.13865713e-05
2.31000000e+00	1.72612079e-03	6.07680009e-05
2.31500000e+00	1.71021935e-03	6.06823505e-05
2.32000000e+00	1.70990998e-03	5.94804605e-05
2.32500000e+00	1.71079930e-03	5.98936227e-05
2.33000000e+00	1.69228818e-03	5.94341043e-05
2.33500000e+00	1.68732387e-03	5.98803126e-05
2.34000000e+00	1.69146378e-03	5.90289521e-05
2.34500000e+00	1.65844450e-03	5.79028126e-05
2.35000000e+00	1.66461741e-03	5.84527696e-05
2.35500000e+00	1.64652638e-03	5.84697269e-05
2.36000000e+00	1.64130264e-03	5.74923906e-05
2.36500000e+00	1.63580441e-03	5.72075660e-05
2.37000000e+00	1.63840462e-03	5.72816632e-05
2.37500000e+00	1.60780018e-03	5.67047650e-05
2.38000000e+00	1.60652283e-03	5.69843636e-05
2.38500000e+00	1.58650009e-03	5.54859785e-05
2.39000000e+00	1.58806352e-03	5.56751259e-05
2.39500000e+00	1.59823128e-03	5.63666033e-05
2.40000000e+00	1.57073267e-03	5.62090083e-05
2.40500000e+00	1.55978137e-03	5.46791141e-05
2.41000000e+00	1.54530363e-03	5.43158454e-05
2.41500000e+00	1.55642781e-03	5.48039912e-05
2.42000000e+00	1.54593112e-03	5.51661096e-05
2.42500000e+00	1.55533066e-03	5.53865009e-05
2.43000000e+00	1.53457657e-03	5.41006404e-05
2.43500000e+00	1.53337962e-03	5.42310045e-05
2.44000000e+00	1.49956575e-03	5.32042006e-05
2.44500000e+00	1.49153099e-03	5.36360449e-05
2.45000000e+00	1.47948027e-03	5.22544487e-05
2.45500000e+00	1.46703848e-03	5.19086204e-05
2.46000000e+00	1.45833390e-03	5.18343376e-05
2.46500000e+00	1.45563534e-03	5.23466274e-05
2.47000000e+00	1.44894666e-03	5.16051746e-05
2.47500000e+00	1.43234599e-03	5.07463081e-05
2.48000000e+00	1.42512265e-03	5.09436889e-05
2.48500000e+00	1.42099093e-03	5.07597640e-05
2.49000000e+00	1.40261105e-03	5.08022784e-05
2.49500000e+00	1.38901528e-03	4.93401152e-05
2.50000000e+00	1.40235667e-03	4.99892358e-05
2.50500000e+00	1.39221267e-03	4.98670461e-05
2.51000000e+00	1.36794149e-03	4.93309296e-05
2.51500000e+00	1.36982450e-03	4.95344233e-05
2.52000000e+00	1.37078507e-03	4.90892348e-05
2.52500000e+00	1.37376331e-03	4.94644111e-05
2.53000000e+00	1.34257499e-03	4.87783833e-05
2.53500000e+00	1.34175573e-03	4.93035788e-05
2.54000000e+00	1.33632498e-03	4.83774907e-05
2.54500000e+00	1.31818670e-03	4.78606432e-05
2.55000000e+00	1.31361764e-03	4.79263861e-05
2.55500000e+00	1.30899222e-03	4.81588481e-05
2.56000000e+00	1.31642279e-03	4.86866832e-05
2.56500000e+00	1.29529611e-03	4.74660807e-05
2.57000000e+00	1.29439542e-03	4.77021099e-05
2.57500000e+00	1.29442453e-03	4.78565389e-05
2.58000000e+00	1.26628940e-03	4.74870383e-05
2.58500000e+00	1.26753435e-03	4.72006266e-05
2.59000000e+00	1.25711183e-03	4.65894756e-05
2.59500000e+00	1.25239371e-03	4.66550681e-05
2.60000000e+00	1.24709128e-03	4.67841854e-05
2.60500000e+00	1.25502672e-03	4.82036364e-05
2.61000000e+00	1.24146054e-03	5.42288807e-05
2.61500000e+00	1.23105185e-03	5.95474432e-05
2.62000000e+00	1.20783019e-03	6.43092672e-05
2.62500000e+00	1.23184076e-03	7.07901311e-05
2.63000000e+00	1.22903269e-03	7.78965366e-05
2.63500000e+00	1.23479017e-03	8.69036179e-05
2.64000000e+00	1.22166307e-03	9.49239961e-05
2.64500000e+00	1.26320252e-03	1.04512271e-04
2.65000000e+00	1.22535538e-03	1.07312928e-04
2.65500000e+00	1.21964571e-03	1.14944404e-04
2.66000000e+00	1.20936483e-03	1.22477635e-04
2.66500000e+00	1.23377546e-03	1.39543283e-04
2.67000000e+00	1.20392341e-03	1.48301663e-04
2.67500000e+00	1.18250254e-03	1.70761623e-04
2.68000000e+00	1.23264557e-03	2.07038437e-04
2.68500000e+00	1.27516098e-03	2.81260959e-04
2.69000000e+00	1.18654259e-03	4.22543365e-04
2.69500000e+00	0.00000000e+00	0.00000000e+00
2.70000000e+00	0.00000000e+00	0.00000000e+00
