% Filename : WDL5_p7_00025_00005.h5
% Date & Time : 30-Oct-2025 16:55:36
% X-ray Energy (keV) : 13.30001
% Exposure Time (s) : 0.500
% Photodiode Value : 141290.000
% I0 of Sample : 0
% I0 of Standard : 1
% 
% q(A^-1)   I(q)    I(q)_SE
8.40000000e-01	0.00000000e+00	0.00000000e+00
8.45000000e-01	2.83747548e-03	4.96787574e-04
8.50000000e-01	2.76481295e-03	2.56319981e-04
8.55000000e-01	2.69454617e-03	2.20350588e-04
8.60000000e-01	2.69809186e-03	1.90960461e-04
8.65000000e-01	2.69365424e-03	1.75635160e-04
8.70000000e-01	2.70163524e-03	1.67799214e-04
8.75000000e-01	2.70379963e-03	1.61725770e-04
8.80000000e-01	2.72514328e-03	1.57363789e-04
8.85000000e-01	2.70999937e-03	1.48192584e-04
8.90000000e-01	2.72460477e-03	1.45775022e-04
8.95000000e-01	2.75920906e-03	1.43490339e-04
9.00000000e-01	2.74801850e-03	1.41388444e-04
9.05000000e-01	2.80171124e-03	1.38021445e-04
9.10000000e-01	2.76198511e-03	1.33501635e-04
9.15000000e-01	2.75408744e-03	1.30945343e-04
9.20000000e-01	2.78551760e-03	1.32332853e-04
9.25000000e-01	2.77121767e-03	1.25917067e-04
9.30000000e-01	2.79568275e-03	1.25783231e-04
9.35000000e-01	2.79407179e-03	1.23311633e-04
9.40000000e-01	2.82150165e-03	1.24847066e-04
9.45000000e-01	2.81993763e-03	1.21666814e-04
9.50000000e-01	2.81402789e-03	1.19677816e-04
9.55000000e-01	2.84488541e-03	1.18768011e-04
9.60000000e-01	2.84569891e-03	1.19032702e-04
9.65000000e-01	2.80365619e-03	1.15210559e-04
9.70000000e-01	2.82358852e-03	1.14160259e-04
9.75000000e-01	2.85278821e-03	1.14119259e-04
9.80000000e-01	2.86234770e-03	1.13437162e-04
9.85000000e-01	2.86416705e-03	1.13604189e-04
9.90000000e-01	2.87753258e-03	1.10749849e-04
9.95000000e-01	2.86280186e-03	1.09594069e-04
1.00000000e+00	2.84917682e-03	1.08578316e-04
1.00500000e+00	2.86957801e-03	1.09403549e-04
1.01000000e+00	2.86681178e-03	1.07005856e-04
1.01500000e+00	2.86716639e-03	1.05954263e-04
1.02000000e+00	2.86469765e-03	1.05842064e-04
1.02500000e+00	2.85621779e-03	1.04261785e-04
1.03000000e+00	2.87771556e-03	1.04561192e-04
1.03500000e+00	2.87320560e-03	1.03065553e-04
1.04000000e+00	2.84721235e-03	1.01392422e-04
1.04500000e+00	2.85515108e-03	1.01901566e-04
1.05000000e+00	2.83443465e-03	1.00414429e-04
1.05500000e+00	2.83963962e-03	9.90214983e-05
1.06000000e+00	2.82983468e-03	9.84975653e-05
1.06500000e+00	2.84827156e-03	9.91275487e-05
1.07000000e+00	2.84715061e-03	9.89952054e-05
1.07500000e+00	2.86481938e-03	9.88513374e-05
1.08000000e+00	2.85854057e-03	9.80933270e-05
1.08500000e+00	2.87717075e-03	9.88054873e-05
1.09000000e+00	2.89201304e-03	9.98494342e-05
1.09500000e+00	2.89705199e-03	9.81321033e-05
1.10000000e+00	2.89413007e-03	9.85417763e-05
1.10500000e+00	2.90261740e-03	9.91108539e-05
1.11000000e+00	2.92438356e-03	1.00142071e-04
1.11500000e+00	2.92592623e-03	9.94266947e-05
1.12000000e+00	2.91722774e-03	9.95265697e-05
1.12500000e+00	2.94158547e-03	1.00124502e-04
1.13000000e+00	2.94916091e-03	1.01455559e-04
1.13500000e+00	2.95429067e-03	1.00436676e-04
1.14000000e+00	2.98757276e-03	1.01381527e-04
1.14500000e+00	2.97978729e-03	1.01885799e-04
1.15000000e+00	2.98842018e-03	1.02784760e-04
1.15500000e+00	3.01712138e-03	1.02737959e-04
1.16000000e+00	2.98112616e-03	1.01862929e-04
1.16500000e+00	3.00460737e-03	1.02481946e-04
1.17000000e+00	3.02695902e-03	1.04443585e-04
1.17500000e+00	3.01483496e-03	1.02648272e-04
1.18000000e+00	3.02612254e-03	1.03426254e-04
1.18500000e+00	3.02673194e-03	1.03287167e-04
1.19000000e+00	3.02886413e-03	1.04491436e-04
1.19500000e+00	3.05941754e-03	1.04222085e-04
1.20000000e+00	3.04359452e-03	1.04370867e-04
1.20500000e+00	3.04982324e-03	1.04332697e-04
1.21000000e+00	3.05561925e-03	1.05910629e-04
1.21500000e+00	3.08011269e-03	1.05087247e-04
1.22000000e+00	3.06452294e-03	1.04722808e-04
1.22500000e+00	3.07372867e-03	1.05380697e-04
1.23000000e+00	3.06025220e-03	1.05728320e-04
1.23500000e+00	3.07787105e-03	1.05611136e-04
1.24000000e+00	3.06124906e-03	1.04583395e-04
1.24500000e+00	3.08881371e-03	1.06272784e-04
1.25000000e+00	3.08685339e-03	1.06848063e-04
1.25500000e+00	3.09653764e-03	1.05920275e-04
1.26000000e+00	3.08396519e-03	1.06113707e-04
1.26500000e+00	3.08023194e-03	1.05628555e-04
1.27000000e+00	3.09562458e-03	1.07666121e-04
1.27500000e+00	3.11083434e-03	1.07134797e-04
1.28000000e+00	3.06823855e-03	1.04994813e-04
1.28500000e+00	3.11403255e-03	1.07124001e-04
1.29000000e+00	3.10312561e-03	1.07780854e-04
1.29500000e+00	3.09707526e-03	1.06376418e-04
1.30000000e+00	3.09097688e-03	1.06020635e-04
1.30500000e+00	3.10568049e-03	1.07047946e-04
1.31000000e+00	3.09127059e-03	1.07763649e-04
1.31500000e+00	3.10924921e-03	1.07065211e-04
1.32000000e+00	3.12934600e-03	1.07641654e-04
1.32500000e+00	3.11930994e-03	1.07576816e-04
1.33000000e+00	3.11817459e-03	1.08779713e-04
1.33500000e+00	3.11727771e-03	1.07314484e-04
1.34000000e+00	3.11305656e-03	1.07171395e-04
1.34500000e+00	3.09734006e-03	1.07004925e-04
1.35000000e+00	3.11401532e-03	1.08662706e-04
1.35500000e+00	3.11120808e-03	1.07098823e-04
1.36000000e+00	3.11653753e-03	1.07151075e-04
1.36500000e+00	3.11681315e-03	1.07474802e-04
1.37000000e+00	3.13800333e-03	1.09804432e-04
1.37500000e+00	3.10737954e-03	1.07126890e-04
1.38000000e+00	3.12112909e-03	1.07868666e-04
1.38500000e+00	3.12472055e-03	1.08492005e-04
1.39000000e+00	3.12278061e-03	1.09153797e-04
1.39500000e+00	3.11430021e-03	1.07258763e-04
1.40000000e+00	3.15477426e-03	1.11883655e-04
1.40500000e+00	3.11635992e-03	1.19065608e-04
1.41000000e+00	3.09454831e-03	1.23740572e-04
1.41500000e+00	3.07386011e-03	1.27438218e-04
1.42000000e+00	3.06529344e-03	1.32234486e-04
1.42500000e+00	3.05181819e-03	1.35546745e-04
1.43000000e+00	3.05223921e-03	1.40665678e-04
1.43500000e+00	3.06085342e-03	1.45454653e-04
1.44000000e+00	3.03637280e-03	1.49650155e-04
1.44500000e+00	3.01202888e-03	1.52545816e-04
1.45000000e+00	3.07613038e-03	1.50538221e-04
1.45500000e+00	3.11013865e-03	1.36548372e-04
1.46000000e+00	3.09397692e-03	1.32834744e-04
1.46500000e+00	3.11957271e-03	1.31557701e-04
1.47000000e+00	3.09380545e-03	1.30238856e-04
1.47500000e+00	3.10438957e-03	1.26887789e-04
1.48000000e+00	3.09531357e-03	1.25188878e-04
1.48500000e+00	3.07994747e-03	1.24589307e-04
1.49000000e+00	3.08823352e-03	1.25232188e-04
1.49500000e+00	3.10720303e-03	1.23156702e-04
1.50000000e+00	3.11759264e-03	1.23271257e-04
1.50500000e+00	3.08781079e-03	1.22687837e-04
1.51000000e+00	3.09156642e-03	1.23067053e-04
1.51500000e+00	3.11510510e-03	1.21996333e-04
1.52000000e+00	3.12203159e-03	1.21939972e-04
1.52500000e+00	3.11022391e-03	1.21240048e-04
1.53000000e+00	3.10895784e-03	1.21882965e-04
1.53500000e+00	3.08593177e-03	1.17585041e-04
1.54000000e+00	3.06911600e-03	1.16770600e-04
1.54500000e+00	3.07151467e-03	1.16505647e-04
1.55000000e+00	3.04198696e-03	1.15127803e-04
1.55500000e+00	3.05988184e-03	1.13227072e-04
1.56000000e+00	3.03894251e-03	1.12713185e-04
1.56500000e+00	3.02368088e-03	1.11587963e-04
1.57000000e+00	2.98330150e-03	1.09321828e-04
1.57500000e+00	2.98244308e-03	1.07258944e-04
1.58000000e+00	2.97266379e-03	1.06742851e-04
1.58500000e+00	2.97782226e-03	1.06885408e-04
1.59000000e+00	2.98177944e-03	1.07094398e-04
1.59500000e+00	2.96180920e-03	1.04410201e-04
1.60000000e+00	2.94689912e-03	1.03804196e-04
1.60500000e+00	2.95903374e-03	1.04310194e-04
1.61000000e+00	2.95623021e-03	1.03725744e-04
1.61500000e+00	2.95368820e-03	1.02671621e-04
1.62000000e+00	2.91263631e-03	1.01661862e-04
1.62500000e+00	2.91488946e-03	1.02938579e-04
1.63000000e+00	2.91116008e-03	1.01703795e-04
1.63500000e+00	2.90724670e-03	1.01563977e-04
1.64000000e+00	2.90151207e-03	1.01412927e-04
1.64500000e+00	2.88004847e-03	1.01832860e-04
1.65000000e+00	2.86577987e-03	1.00194065e-04
1.65500000e+00	2.87165778e-03	1.00265384e-04
1.66000000e+00	2.87541684e-03	1.00530208e-04
1.66500000e+00	2.86326842e-03	1.01727396e-04
1.67000000e+00	2.87107163e-03	9.99552399e-05
1.67500000e+00	2.86808735e-03	1.00118964e-04
1.68000000e+00	2.87159687e-03	1.00462799e-04
1.68500000e+00	2.83173979e-03	1.00765598e-04
1.69000000e+00	2.84373608e-03	9.92753248e-05
1.69500000e+00	2.81198728e-03	9.79838969e-05
1.70000000e+00	2.82156402e-03	9.94459998e-05
1.70500000e+00	2.79891726e-03	9.89965921e-05
1.71000000e+00	2.79329559e-03	9.76313466e-05
1.71500000e+00	2.79772091e-03	9.77303929e-05
1.72000000e+00	2.77058118e-03	9.75135555e-05
1.72500000e+00	2.78985713e-03	9.87602673e-05
1.73000000e+00	2.80095355e-03	9.78508154e-05
1.73500000e+00	2.77681248e-03	9.72782662e-05
1.74000000e+00	2.76584033e-03	9.71167217e-05
1.74500000e+00	2.75641832e-03	9.79658216e-05
1.75000000e+00	2.75332044e-03	9.59507471e-05
1.75500000e+00	2.73777310e-03	9.60476272e-05
1.76000000e+00	2.73273548e-03	9.57668435e-05
1.76500000e+00	2.73044048e-03	9.69815983e-05
1.77000000e+00	2.71999083e-03	9.50247763e-05
1.77500000e+00	2.71466067e-03	9.50557217e-05
1.78000000e+00	2.70275428e-03	9.49617480e-05
1.78500000e+00	2.68032904e-03	9.51574930e-05
1.79000000e+00	2.70449368e-03	9.44497031e-05
1.79500000e+00	2.67557900e-03	9.36486026e-05
1.80000000e+00	2.68095602e-03	9.43889479e-05
1.80500000e+00	2.68597037e-03	9.52041946e-05
1.81000000e+00	2.67860450e-03	9.35462606e-05
1.81500000e+00	2.63316345e-03	9.20159842e-05
1.82000000e+00	2.65566506e-03	9.34155330e-05
1.82500000e+00	2.64856660e-03	9.38194502e-05
1.83000000e+00	2.62515915e-03	9.17860198e-05
1.83500000e+00	2.62017610e-03	9.17710370e-05
1.84000000e+00	2.63193807e-03	9.26470067e-05
1.84500000e+00	2.63355537e-03	9.32652249e-05
1.85000000e+00	2.61221893e-03	9.14443536e-05
1.85500000e+00	2.60855205e-03	9.13129438e-05
1.86000000e+00	2.60252695e-03	9.17335003e-05
1.86500000e+00	2.57664387e-03	9.10330277e-05
1.87000000e+00	2.56375150e-03	8.95974467e-05
1.87500000e+00	2.58726411e-03	9.07826767e-05
1.88000000e+00	2.56775236e-03	9.04579643e-05
1.88500000e+00	2.56020212e-03	9.07162654e-05
1.89000000e+00	2.52937410e-03	8.83589613e-05
1.89500000e+00	2.53645593e-03	8.90586812e-05
1.90000000e+00	2.50760472e-03	8.83777533e-05
1.90500000e+00	2.52977974e-03	8.92196772e-05
1.91000000e+00	2.52512226e-03	8.84230556e-05
1.91500000e+00	2.49655898e-03	8.75194767e-05
1.92000000e+00	2.48759786e-03	8.77193636e-05
1.92500000e+00	2.48512899e-03	8.77645369e-05
1.93000000e+00	2.47792992e-03	8.66474624e-05
1.93500000e+00	2.47751543e-03	8.68751621e-05
1.94000000e+00	2.45096596e-03	8.66724658e-05
1.94500000e+00	2.44155283e-03	8.60473371e-05
1.95000000e+00	2.44526294e-03	8.54079539e-05
1.95500000e+00	2.43131318e-03	8.52605810e-05
1.96000000e+00	2.44263225e-03	8.61895953e-05
1.96500000e+00	2.42991715e-03	8.58018687e-05
1.97000000e+00	2.42512023e-03	8.46966057e-05
1.97500000e+00	2.41670599e-03	8.48740496e-05
1.98000000e+00	2.39164222e-03	8.43854467e-05
1.98500000e+00	2.40282285e-03	8.48909746e-05
1.99000000e+00	2.38066251e-03	8.31655929e-05
1.99500000e+00	2.38574057e-03	8.36944560e-05
2.00000000e+00	2.37528757e-03	8.38546165e-05
2.00500000e+00	2.38546524e-03	8.43696180e-05
2.01000000e+00	2.37255801e-03	9.21539416e-05
2.01500000e+00	2.33550921e-03	9.62920047e-05
2.02000000e+00	2.32861657e-03	1.02373743e-04
2.02500000e+00	2.31801499e-03	1.05902723e-04
2.03000000e+00	2.30043895e-03	1.11392699e-04
2.03500000e+00	2.28751430e-03	1.15734448e-04
2.04000000e+00	2.25339655e-03	1.19288326e-04
2.04500000e+00	2.23780662e-03	1.24381461e-04
2.05000000e+00	2.25214988e-03	1.31648446e-04
2.05500000e+00	2.25634756e-03	1.29224364e-04
2.06000000e+00	2.28513088e-03	1.13822384e-04
2.06500000e+00	2.25749040e-03	1.07334079e-04
2.07000000e+00	2.23926020e-03	1.00694756e-04
2.07500000e+00	2.27257119e-03	1.00099350e-04
2.08000000e+00	2.23828907e-03	9.82947470e-05
2.08500000e+00	2.21678446e-03	9.66175457e-05
2.09000000e+00	2.23699178e-03	9.44872540e-05
2.09500000e+00	2.21133250e-03	9.23469425e-05
2.10000000e+00	2.23688749e-03	9.28345080e-05
2.10500000e+00	2.22079552e-03	9.18950447e-05
2.11000000e+00	2.20772007e-03	8.79819061e-05
2.11500000e+00	2.17208296e-03	8.57191075e-05
2.12000000e+00	2.16807538e-03	8.50405746e-05
2.12500000e+00	2.15983742e-03	8.44474288e-05
2.13000000e+00	2.16563242e-03	8.13341506e-05
2.13500000e+00	2.12599525e-03	7.88454806e-05
2.14000000e+00	2.13179125e-03	7.84306724e-05
2.14500000e+00	2.09409323e-03	7.71955749e-05
2.15000000e+00	2.09627743e-03	7.46993511e-05
2.15500000e+00	2.08283847e-03	7.44047695e-05
2.16000000e+00	2.06704076e-03	7.35091509e-05
2.16500000e+00	2.07458027e-03	7.41944807e-05
2.17000000e+00	2.05215330e-03	7.16622430e-05
2.17500000e+00	2.03243574e-03	7.11443196e-05
2.18000000e+00	2.02922724e-03	7.12711257e-05
2.18500000e+00	2.03031610e-03	7.16265649e-05
2.19000000e+00	2.01183607e-03	7.08118779e-05
2.19500000e+00	2.00181781e-03	7.00468285e-05
2.20000000e+00	1.98255498e-03	6.96178552e-05
2.20500000e+00	1.95454224e-03	6.87525750e-05
2.21000000e+00	1.97219478e-03	6.97516471e-05
2.21500000e+00	1.94717213e-03	6.81997994e-05
2.22000000e+00	1.94142359e-03	6.78339885e-05
2.22500000e+00	1.92428408e-03	6.79122683e-05
2.23000000e+00	1.94034324e-03	6.87303381e-05
2.23500000e+00	1.92633641e-03	6.73947512e-05
2.24000000e+00	1.90039745e-03	6.65044259e-05
2.24500000e+00	1.89696045e-03	6.67629989e-05
2.25000000e+00	1.87857263e-03	6.66829881e-05
2.25500000e+00	1.86743087e-03	6.51631759e-05
2.26000000e+00	1.84904958e-03	6.47611429e-05
2.26500000e+00	1.84608206e-03	6.48276304e-05
2.27000000e+00	1.84837976e-03	6.59154221e-05
2.27500000e+00	1.82006923e-03	6.35071857e-05
2.28000000e+00	1.82987752e-03	6.39613814e-05
2.28500000e+00	1.80420421e-03	6.34692058e-05
2.29000000e+00	1.79075273e-03	6.33018126e-05
2.29500000e+00	1.78646214e-03	6.29870283e-05
2.30000000e+00	1.77516457e-03	6.20366406e-05
2.30500000e+00	1.76135030e-03	6.17434821e-05
2.31000000e+00	1.73712137e-03	6.11811753e-05
2.31500000e+00	1.72082822e-03	6.11050955e-05
2.32000000e+00	1.72993263e-03	6.01577241e-05
2.32500000e+00	1.72709574e-03	6.05316524e-05
2.33000000e+00	1.70992207e-03	6.00621670e-05
2.33500000e+00	1.69471247e-03	6.01037577e-05
2.34000000e+00	1.69243733e-03	5.90407165e-05
2.34500000e+00	1.68053004e-03	5.87166619e-05
2.35000000e+00	1.66446520e-03	5.83534574e-05
2.35500000e+00	1.64892256e-03	5.85544828e-05
2.36000000e+00	1.66347018e-03	5.82470229e-05
2.36500000e+00	1.65438562e-03	5.79092017e-05
2.37000000e+00	1.62253612e-03	5.67959889e-05
2.37500000e+00	1.62118561e-03	5.73014651e-05
2.38000000e+00	1.62344888e-03	5.75578198e-05
2.38500000e+00	1.60801964e-03	5.62081199e-05
2.39000000e+00	1.60463862e-03	5.62987426e-05
2.39500000e+00	1.59176823e-03	5.61087011e-05
2.40000000e+00	1.59242923e-03	5.70034666e-05
2.40500000e+00	1.56478309e-03	5.48922598e-05
2.41000000e+00	1.54799259e-03	5.44350100e-05
2.41500000e+00	1.57909876e-03	5.55437377e-05
2.42000000e+00	1.55325503e-03	5.54260094e-05
2.42500000e+00	1.57796065e-03	5.61620444e-05
2.43000000e+00	1.57697734e-03	5.55408439e-05
2.43500000e+00	1.52973828e-03	5.41857065e-05
2.44000000e+00	1.53105923e-03	5.42872781e-05
2.44500000e+00	1.49856169e-03	5.38728184e-05
2.45000000e+00	1.50150346e-03	5.30967303e-05
2.45500000e+00	1.48294657e-03	5.25487433e-05
2.46000000e+00	1.47452975e-03	5.24057375e-05
2.46500000e+00	1.46170308e-03	5.25541100e-05
2.47000000e+00	1.44438154e-03	5.15189853e-05
2.47500000e+00	1.45787274e-03	5.16681634e-05
2.48000000e+00	1.43674511e-03	5.13631724e-05
2.48500000e+00	1.43133834e-03	5.11563316e-05
2.49000000e+00	1.43220465e-03	5.18686899e-05
2.49500000e+00	1.41488857e-03	5.02469312e-05
2.50000000e+00	1.40243064e-03	4.99207975e-05
2.50500000e+00	1.38536649e-03	4.96024564e-05
2.51000000e+00	1.39981837e-03	5.05289857e-05
2.51500000e+00	1.37813662e-03	4.97972199e-05
2.52000000e+00	1.37453262e-03	4.92825531e-05
2.52500000e+00	1.35905986e-03	4.89203119e-05
2.53000000e+00	1.36257245e-03	4.94588836e-05
2.53500000e+00	1.34597724e-03	4.94971755e-05
2.54000000e+00	1.33017295e-03	4.80506476e-05
2.54500000e+00	1.33065676e-03	4.82972931e-05
2.55000000e+00	1.33376162e-03	4.86619871e-05
2.55500000e+00	1.31592667e-03	4.84210071e-05
2.56000000e+00	1.31667309e-03	4.87047995e-05
2.56500000e+00	1.30151181e-03	4.76778597e-05
2.57000000e+00	1.30210808e-03	4.79499596e-05
2.57500000e+00	1.30668059e-03	4.82000411e-05
2.58000000e+00	1.29920908e-03	4.87560822e-05
2.58500000e+00	1.27219682e-03	4.73223236e-05
2.59000000e+00	1.27413322e-03	4.72153949e-05
2.59500000e+00	1.26599581e-03	4.71263634e-05
2.60000000e+00	1.28133694e-03	4.80427722e-05
2.60500000e+00	1.28599639e-03	4.93077740e-05
2.61000000e+00	1.25179295e-03	5.46865960e-05
2.61500000e+00	1.22891498e-03	5.95063354e-05
2.62000000e+00	1.21295688e-03	6.44984854e-05
2.62500000e+00	1.22209880e-03	7.03782911e-05
2.63000000e+00	1.21962405e-03	7.74084537e-05
2.63500000e+00	1.22068049e-03	8.61048014e-05
2.64000000e+00	1.26929844e-03	9.84226133e-05
2.64500000e+00	1.25494761e-03	1.04160249e-04
2.65000000e+00	1.24406331e-03	1.09060295e-04
2.65500000e+00	1.20511487e-03	1.13678262e-04
2.66000000e+00	1.19756805e-03	1.21197420e-04
2.66500000e+00	1.24344123e-03	1.41282638e-04
2.67000000e+00	1.20077252e-03	1.48321333e-04
2.67500000e+00	1.14669681e-03	1.65102480e-04
2.68000000e+00	1.16897908e-03	1.95878085e-04
2.68500000e+00	1.18248882e-03	2.60072964e-04
2.69000000e+00	1.08853112e-03	3.97896548e-04
2.69500000e+00	0.00000000e+00	0.00000000e+00
2.70000000e+00	0.00000000e+00	0.00000000e+00
