% Filename : WDL5_00008_00005.h5
% Date & Time : 30-Oct-2025 14:36:57
% X-ray Energy (keV) : 13.30001
% Exposure Time (s) : 0.500
% Photodiode Value : 135372.000
% I0 of Sample : 0
% I0 of Standard : 1
% 
% q(A^-1)   I(q)    I(q)_SE
8.40000000e-01	0.00000000e+00	0.00000000e+00
8.45000000e-01	2.87838249e-03	5.03097727e-04
8.50000000e-01	2.70463000e-03	2.51113423e-04
8.55000000e-01	2.70595020e-03	2.21285341e-04
8.60000000e-01	2.65943002e-03	1.88067206e-04
8.65000000e-01	2.66584041e-03	1.73742056e-04
8.70000000e-01	2.71107684e-03	1.68374856e-04
8.75000000e-01	2.66017886e-03	1.58983180e-04
8.80000000e-01	2.70694779e-03	1.56709867e-04
8.85000000e-01	2.72929018e-03	1.49239964e-04
8.90000000e-01	2.72957906e-03	1.46015983e-04
8.95000000e-01	2.73733776e-03	1.42440515e-04
9.00000000e-01	2.70386883e-03	1.39332909e-04
9.05000000e-01	2.75529047e-03	1.35571044e-04
9.10000000e-01	2.75033522e-03	1.33023201e-04
9.15000000e-01	2.74913114e-03	1.30833620e-04
9.20000000e-01	2.77244439e-03	1.31768476e-04
9.25000000e-01	2.75091446e-03	1.24987235e-04
9.30000000e-01	2.76251511e-03	1.24296407e-04
9.35000000e-01	2.77531704e-03	1.22424406e-04
9.40000000e-01	2.76621297e-03	1.22412569e-04
9.45000000e-01	2.75714292e-03	1.19004904e-04
9.50000000e-01	2.80868182e-03	1.19543098e-04
9.55000000e-01	2.78738957e-03	1.16401453e-04
9.60000000e-01	2.83226571e-03	1.18461356e-04
9.65000000e-01	2.78790870e-03	1.14548084e-04
9.70000000e-01	2.82119972e-03	1.14079701e-04
9.75000000e-01	2.81346849e-03	1.12575929e-04
9.80000000e-01	2.82206495e-03	1.11939325e-04
9.85000000e-01	2.85697177e-03	1.13432285e-04
9.90000000e-01	2.85019588e-03	1.09715717e-04
9.95000000e-01	2.82162780e-03	1.08194232e-04
1.00000000e+00	2.81833736e-03	1.07454487e-04
1.00500000e+00	2.80575062e-03	1.06931975e-04
1.01000000e+00	2.82666534e-03	1.05566874e-04
1.01500000e+00	2.83266408e-03	1.04675638e-04
1.02000000e+00	2.84325012e-03	1.05144290e-04
1.02500000e+00	2.84753391e-03	1.04003675e-04
1.03000000e+00	2.84493416e-03	1.03462023e-04
1.03500000e+00	2.81644768e-03	1.01009731e-04
1.04000000e+00	2.82899945e-03	1.00763729e-04
1.04500000e+00	2.84358717e-03	1.01326679e-04
1.05000000e+00	2.80188495e-03	9.93147088e-05
1.05500000e+00	2.77862050e-03	9.69691893e-05
1.06000000e+00	2.83747205e-03	9.87715820e-05
1.06500000e+00	2.81744521e-03	9.81131081e-05
1.07000000e+00	2.82266177e-03	9.83119900e-05
1.07500000e+00	2.81934160e-03	9.73210854e-05
1.08000000e+00	2.84697260e-03	9.75906649e-05
1.08500000e+00	2.83751521e-03	9.75634400e-05
1.09000000e+00	2.85165157e-03	9.85209447e-05
1.09500000e+00	2.85861548e-03	9.68557476e-05
1.10000000e+00	2.88076411e-03	9.81903974e-05
1.10500000e+00	2.88051871e-03	9.85213318e-05
1.11000000e+00	2.87881659e-03	9.85181213e-05
1.11500000e+00	2.88653388e-03	9.81011697e-05
1.12000000e+00	2.88391534e-03	9.83357164e-05
1.12500000e+00	2.90527679e-03	9.90050232e-05
1.13000000e+00	2.91733389e-03	1.00514858e-04
1.13500000e+00	2.90258811e-03	9.86514249e-05
1.14000000e+00	2.94402266e-03	9.98869488e-05
1.14500000e+00	2.94956822e-03	1.00944239e-04
1.15000000e+00	2.92794382e-03	1.00790491e-04
1.15500000e+00	2.95992917e-03	1.00767071e-04
1.16000000e+00	2.95641527e-03	1.01013905e-04
1.16500000e+00	2.96832392e-03	1.01290102e-04
1.17000000e+00	2.96309825e-03	1.02350200e-04
1.17500000e+00	2.96598265e-03	1.00925927e-04
1.18000000e+00	2.97359437e-03	1.01666240e-04
1.18500000e+00	3.00165890e-03	1.02546965e-04
1.19000000e+00	2.98986942e-03	1.03228547e-04
1.19500000e+00	2.98686034e-03	1.01854100e-04
1.20000000e+00	3.00680336e-03	1.03094277e-04
1.20500000e+00	3.01094675e-03	1.02940546e-04
1.21000000e+00	3.01880771e-03	1.04580235e-04
1.21500000e+00	3.01569001e-03	1.02842007e-04
1.22000000e+00	3.01526731e-03	1.03006686e-04
1.22500000e+00	3.05573532e-03	1.04763630e-04
1.23000000e+00	3.02094896e-03	1.04297542e-04
1.23500000e+00	3.02243198e-03	1.03776203e-04
1.24000000e+00	3.04390296e-03	1.03962722e-04
1.24500000e+00	3.03510132e-03	1.04489044e-04
1.25000000e+00	3.03130072e-03	1.04918269e-04
1.25500000e+00	3.04631762e-03	1.04336481e-04
1.26000000e+00	3.06662120e-03	1.05553971e-04
1.26500000e+00	3.05865458e-03	1.04929229e-04
1.27000000e+00	3.04052918e-03	1.05826791e-04
1.27500000e+00	3.04078674e-03	1.04687031e-04
1.28000000e+00	3.04479041e-03	1.04180665e-04
1.28500000e+00	3.05002198e-03	1.05045760e-04
1.29000000e+00	3.06137048e-03	1.06287143e-04
1.29500000e+00	3.05904372e-03	1.05040820e-04
1.30000000e+00	3.04264045e-03	1.04385785e-04
1.30500000e+00	3.04251764e-03	1.04810236e-04
1.31000000e+00	3.03597388e-03	1.05841246e-04
1.31500000e+00	3.08363361e-03	1.06174902e-04
1.32000000e+00	3.08070510e-03	1.05952718e-04
1.32500000e+00	3.06367786e-03	1.05667126e-04
1.33000000e+00	3.05341139e-03	1.06548208e-04
1.33500000e+00	3.04520518e-03	1.04863858e-04
1.34000000e+00	3.07511274e-03	1.05931279e-04
1.34500000e+00	3.05291110e-03	1.05543584e-04
1.35000000e+00	3.06983782e-03	1.07154989e-04
1.35500000e+00	3.05707178e-03	1.05361527e-04
1.36000000e+00	3.05809448e-03	1.05135652e-04
1.36500000e+00	3.06490232e-03	1.05784117e-04
1.37000000e+00	3.08360530e-03	1.07990429e-04
1.37500000e+00	3.06376521e-03	1.05622424e-04
1.38000000e+00	3.06641824e-03	1.05971456e-04
1.38500000e+00	3.08287136e-03	1.07046746e-04
1.39000000e+00	3.07178112e-03	1.07424976e-04
1.39500000e+00	3.06147468e-03	1.05483646e-04
1.40000000e+00	3.12530823e-03	1.10923458e-04
1.40500000e+00	3.05655499e-03	1.16800600e-04
1.41000000e+00	3.05382813e-03	1.22167583e-04
1.41500000e+00	3.03806464e-03	1.26007523e-04
1.42000000e+00	3.00611541e-03	1.29655598e-04
1.42500000e+00	3.04378880e-03	1.35101165e-04
1.43000000e+00	2.97429721e-03	1.37052186e-04
1.43500000e+00	2.98173105e-03	1.41549904e-04
1.44000000e+00	2.97479546e-03	1.46926743e-04
1.44500000e+00	2.93537220e-03	1.48743587e-04
1.45000000e+00	3.06733673e-03	1.50372482e-04
1.45500000e+00	3.04926210e-03	1.34088493e-04
1.46000000e+00	3.05311027e-03	1.31170453e-04
1.46500000e+00	3.05736066e-03	1.28955996e-04
1.47000000e+00	3.02802108e-03	1.27551519e-04
1.47500000e+00	3.01992750e-03	1.23476060e-04
1.48000000e+00	3.04372002e-03	1.22982354e-04
1.48500000e+00	3.03684409e-03	1.22974302e-04
1.49000000e+00	3.01975747e-03	1.22328891e-04
1.49500000e+00	3.02494621e-03	1.19989935e-04
1.50000000e+00	3.01403138e-03	1.19153712e-04
1.50500000e+00	3.02187447e-03	1.20079049e-04
1.51000000e+00	3.03985517e-03	1.21010804e-04
1.51500000e+00	3.05503054e-03	1.19783300e-04
1.52000000e+00	3.04568660e-03	1.18887931e-04
1.52500000e+00	3.05233801e-03	1.18994096e-04
1.53000000e+00	3.05834277e-03	1.20051887e-04
1.53500000e+00	3.01719241e-03	1.15003731e-04
1.54000000e+00	3.03056131e-03	1.15294217e-04
1.54500000e+00	3.01485652e-03	1.14454435e-04
1.55000000e+00	3.01470481e-03	1.14157703e-04
1.55500000e+00	3.01194506e-03	1.11462475e-04
1.56000000e+00	2.98789151e-03	1.10793168e-04
1.56500000e+00	2.97478899e-03	1.09823100e-04
1.57000000e+00	2.96268070e-03	1.08583006e-04
1.57500000e+00	2.94164019e-03	1.05836593e-04
1.58000000e+00	2.95332235e-03	1.06020858e-04
1.58500000e+00	2.95883305e-03	1.06245636e-04
1.59000000e+00	2.91959876e-03	1.04862964e-04
1.59500000e+00	2.91489512e-03	1.02724158e-04
1.60000000e+00	2.91076923e-03	1.02531690e-04
1.60500000e+00	2.91542574e-03	1.02716469e-04
1.61000000e+00	2.89108919e-03	1.01443312e-04
1.61500000e+00	2.90337300e-03	1.00944045e-04
1.62000000e+00	2.88993957e-03	1.00954421e-04
1.62500000e+00	2.87414797e-03	1.01514445e-04
1.63000000e+00	2.87697951e-03	1.00505652e-04
1.63500000e+00	2.86143836e-03	1.00028561e-04
1.64000000e+00	2.87109594e-03	1.00341120e-04
1.64500000e+00	2.87229408e-03	1.01561768e-04
1.65000000e+00	2.83689561e-03	9.91935744e-05
1.65500000e+00	2.84352978e-03	9.92731534e-05
1.66000000e+00	2.80723878e-03	9.81714286e-05
1.66500000e+00	2.85098226e-03	1.01355124e-04
1.67000000e+00	2.84060881e-03	9.89131162e-05
1.67500000e+00	2.80626603e-03	9.79015993e-05
1.68000000e+00	2.80004419e-03	9.81074382e-05
1.68500000e+00	2.78456341e-03	9.91256805e-05
1.69000000e+00	2.80482740e-03	9.79013678e-05
1.69500000e+00	2.78060647e-03	9.68651548e-05
1.70000000e+00	2.80741579e-03	9.89055779e-05
1.70500000e+00	2.76745668e-03	9.79675888e-05
1.71000000e+00	2.76503247e-03	9.66646308e-05
1.71500000e+00	2.75651978e-03	9.62307315e-05
1.72000000e+00	2.72645440e-03	9.59995861e-05
1.72500000e+00	2.72589324e-03	9.65637292e-05
1.73000000e+00	2.74114894e-03	9.57902026e-05
1.73500000e+00	2.72309376e-03	9.54170886e-05
1.74000000e+00	2.70789427e-03	9.51405367e-05
1.74500000e+00	2.70375469e-03	9.61216174e-05
1.75000000e+00	2.67276218e-03	9.31725504e-05
1.75500000e+00	2.71630329e-03	9.53208771e-05
1.76000000e+00	2.68578972e-03	9.42425937e-05
1.76500000e+00	2.69189262e-03	9.56640786e-05
1.77000000e+00	2.69290059e-03	9.41008973e-05
1.77500000e+00	2.66115133e-03	9.32154603e-05
1.78000000e+00	2.64125504e-03	9.28759164e-05
1.78500000e+00	2.65021269e-03	9.41294724e-05
1.79000000e+00	2.66751749e-03	9.31572257e-05
1.79500000e+00	2.64160392e-03	9.24706931e-05
1.80000000e+00	2.64449149e-03	9.32010272e-05
1.80500000e+00	2.65207099e-03	9.40693039e-05
1.81000000e+00	2.62130818e-03	9.16014168e-05
1.81500000e+00	2.60927595e-03	9.12093602e-05
1.82000000e+00	2.60147378e-03	9.14849290e-05
1.82500000e+00	2.60041434e-03	9.21165174e-05
1.83000000e+00	2.58841744e-03	9.05047742e-05
1.83500000e+00	2.58925291e-03	9.07322015e-05
1.84000000e+00	2.58982480e-03	9.11816271e-05
1.84500000e+00	2.55433049e-03	9.04523777e-05
1.85000000e+00	2.57617132e-03	9.01953157e-05
1.85500000e+00	2.57286575e-03	9.00715141e-05
1.86000000e+00	2.53827505e-03	8.95743627e-05
1.86500000e+00	2.55009450e-03	9.01398394e-05
1.87000000e+00	2.54584528e-03	8.90790159e-05
1.87500000e+00	2.50804362e-03	8.80280399e-05
1.88000000e+00	2.51770777e-03	8.87349036e-05
1.88500000e+00	2.53277251e-03	8.97753402e-05
1.89000000e+00	2.51938129e-03	8.80724011e-05
1.89500000e+00	2.49183168e-03	8.75645678e-05
1.90000000e+00	2.47293117e-03	8.71564037e-05
1.90500000e+00	2.47891952e-03	8.75029033e-05
1.91000000e+00	2.47033265e-03	8.65769904e-05
1.91500000e+00	2.46340299e-03	8.64617971e-05
1.92000000e+00	2.43511654e-03	8.58665478e-05
1.92500000e+00	2.45104682e-03	8.64688831e-05
1.93000000e+00	2.42816345e-03	8.49725679e-05
1.93500000e+00	2.42306542e-03	8.49758420e-05
1.94000000e+00	2.41373165e-03	8.53815907e-05
1.94500000e+00	2.39454623e-03	8.44626800e-05
1.95000000e+00	2.40481617e-03	8.40446926e-05
1.95500000e+00	2.40316992e-03	8.43195301e-05
1.96000000e+00	2.38749329e-03	8.42672835e-05
1.96500000e+00	2.39577916e-03	8.46346797e-05
1.97000000e+00	2.37714010e-03	8.30138939e-05
1.97500000e+00	2.38952214e-03	8.39869461e-05
1.98000000e+00	2.36606640e-03	8.35051915e-05
1.98500000e+00	2.35266810e-03	8.31710052e-05
1.99000000e+00	2.34904914e-03	8.20081637e-05
1.99500000e+00	2.31646564e-03	8.12677932e-05
2.00000000e+00	2.34766081e-03	8.28576643e-05
2.00500000e+00	2.34587742e-03	8.29452767e-05
2.01000000e+00	2.32597884e-03	9.02250919e-05
2.01500000e+00	2.30931549e-03	9.53782684e-05
2.02000000e+00	2.28659521e-03	1.00630967e-04
2.02500000e+00	2.27343585e-03	1.03892192e-04
2.03000000e+00	2.26532115e-03	1.09650755e-04
2.03500000e+00	2.23962681e-03	1.13387778e-04
2.04000000e+00	2.19917826e-03	1.16368947e-04
2.04500000e+00	2.20815499e-03	1.22767221e-04
2.05000000e+00	2.19654573e-03	1.28295665e-04
2.05500000e+00	2.19481289e-03	1.25520761e-04
2.06000000e+00	2.23986061e-03	1.11469978e-04
2.06500000e+00	2.24045369e-03	1.06652964e-04
2.07000000e+00	2.23597382e-03	1.00635507e-04
2.07500000e+00	2.20889217e-03	9.72341704e-05
2.08000000e+00	2.21735937e-03	9.74661990e-05
2.08500000e+00	2.22213085e-03	9.66954690e-05
2.09000000e+00	2.22072637e-03	9.40266334e-05
2.09500000e+00	2.21972451e-03	9.27519245e-05
2.10000000e+00	2.21552951e-03	9.19048152e-05
2.10500000e+00	2.19803034e-03	9.10352570e-05
2.11000000e+00	2.17614257e-03	8.67216182e-05
2.11500000e+00	2.19223867e-03	8.65462390e-05
2.12000000e+00	2.15397501e-03	8.45631471e-05
2.12500000e+00	2.12930914e-03	8.33767566e-05
2.13000000e+00	2.12043782e-03	7.97418150e-05
2.13500000e+00	2.09987950e-03	7.79173976e-05
2.14000000e+00	2.08282201e-03	7.66608502e-05
2.14500000e+00	2.07583915e-03	7.65862118e-05
2.15000000e+00	2.08372768e-03	7.42850135e-05
2.15500000e+00	2.05863058e-03	7.35511122e-05
2.16000000e+00	2.04878465e-03	7.28792687e-05
2.16500000e+00	2.04746654e-03	7.32185770e-05
2.17000000e+00	2.04860713e-03	7.15570190e-05
2.17500000e+00	2.01651885e-03	7.06637622e-05
2.18000000e+00	2.00278113e-03	7.03942417e-05
2.18500000e+00	2.00247659e-03	7.06381011e-05
2.19000000e+00	2.00095517e-03	7.04840943e-05
2.19500000e+00	2.00358638e-03	7.00929526e-05
2.20000000e+00	1.96980001e-03	6.91329661e-05
2.20500000e+00	1.96103753e-03	6.90515806e-05
2.21000000e+00	1.96934342e-03	6.96850284e-05
2.21500000e+00	1.94273991e-03	6.80520747e-05
2.22000000e+00	1.92165601e-03	6.72164949e-05
2.22500000e+00	1.91044224e-03	6.73539967e-05
2.23000000e+00	1.90208248e-03	6.74012475e-05
2.23500000e+00	1.89980976e-03	6.64435090e-05
2.24000000e+00	1.87471287e-03	6.56096416e-05
2.24500000e+00	1.87933381e-03	6.61739559e-05
2.25000000e+00	1.85313119e-03	6.58185206e-05
2.25500000e+00	1.84976991e-03	6.45415789e-05
2.26000000e+00	1.84956621e-03	6.47479853e-05
2.26500000e+00	1.83609019e-03	6.45482411e-05
2.27000000e+00	1.80541130e-03	6.43450260e-05
2.27500000e+00	1.79548165e-03	6.27610424e-05
2.28000000e+00	1.80586487e-03	6.30758604e-05
2.28500000e+00	1.77820147e-03	6.25907400e-05
2.29000000e+00	1.77025866e-03	6.26467664e-05
2.29500000e+00	1.75989252e-03	6.20535302e-05
2.30000000e+00	1.74064363e-03	6.08007297e-05
2.30500000e+00	1.72834897e-03	6.05694088e-05
2.31000000e+00	1.71813605e-03	6.04197429e-05
2.31500000e+00	1.73179224e-03	6.14399255e-05
2.32000000e+00	1.69346111e-03	5.88737845e-05
2.32500000e+00	1.67621569e-03	5.88200572e-05
2.33000000e+00	1.68746093e-03	5.92562251e-05
2.33500000e+00	1.67254102e-03	5.93720084e-05
2.34000000e+00	1.63548063e-03	5.70999380e-05
2.34500000e+00	1.65501569e-03	5.76807229e-05
2.35000000e+00	1.63341597e-03	5.72226870e-05
2.35500000e+00	1.62226238e-03	5.75724625e-05
2.36000000e+00	1.63325381e-03	5.72231209e-05
2.36500000e+00	1.60665230e-03	5.62145699e-05
2.37000000e+00	1.60556375e-03	5.61307118e-05
2.37500000e+00	1.60518977e-03	5.67182518e-05
2.38000000e+00	1.59738211e-03	5.66740035e-05
2.38500000e+00	1.56726776e-03	5.47916549e-05
2.39000000e+00	1.56277096e-03	5.48551790e-05
2.39500000e+00	1.55840020e-03	5.50107774e-05
2.40000000e+00	1.55760063e-03	5.57560565e-05
2.40500000e+00	1.53286378e-03	5.37709645e-05
2.41000000e+00	1.52143417e-03	5.35764233e-05
2.41500000e+00	1.53085620e-03	5.39453490e-05
2.42000000e+00	1.52117573e-03	5.42318011e-05
2.42500000e+00	1.53887176e-03	5.47669538e-05
2.43000000e+00	1.50258350e-03	5.30330069e-05
2.43500000e+00	1.50196994e-03	5.32192312e-05
2.44000000e+00	1.46815632e-03	5.20121996e-05
2.44500000e+00	1.46490479e-03	5.26531705e-05
2.45000000e+00	1.45221182e-03	5.12651244e-05
2.45500000e+00	1.43864680e-03	5.09908366e-05
2.46000000e+00	1.42592851e-03	5.06391870e-05
2.46500000e+00	1.41922903e-03	5.11382407e-05
2.47000000e+00	1.42043382e-03	5.05829493e-05
2.47500000e+00	1.42559072e-03	5.05355854e-05
2.48000000e+00	1.40915315e-03	5.03536258e-05
2.48500000e+00	1.38393501e-03	4.94039805e-05
2.49000000e+00	1.37386992e-03	4.98108963e-05
2.49500000e+00	1.37625029e-03	4.89323408e-05
2.50000000e+00	1.36371484e-03	4.85869944e-05
2.50500000e+00	1.37342478e-03	4.92484913e-05
2.51000000e+00	1.35784241e-03	4.89177316e-05
2.51500000e+00	1.33874387e-03	4.84326693e-05
2.52000000e+00	1.33570345e-03	4.78729009e-05
2.52500000e+00	1.32097579e-03	4.76089478e-05
2.53000000e+00	1.32682463e-03	4.81629736e-05
2.53500000e+00	1.30978770e-03	4.81417217e-05
2.54000000e+00	1.31312477e-03	4.75011582e-05
2.54500000e+00	1.31606169e-03	4.78480104e-05
2.55000000e+00	1.28729212e-03	4.69720760e-05
2.55500000e+00	1.27138496e-03	4.67460851e-05
2.56000000e+00	1.28357520e-03	4.74720195e-05
2.56500000e+00	1.27504008e-03	4.67910618e-05
2.57000000e+00	1.27255852e-03	4.68053372e-05
2.57500000e+00	1.25880775e-03	4.64323438e-05
2.58000000e+00	1.25082552e-03	4.69072799e-05
2.58500000e+00	1.24678521e-03	4.64084942e-05
2.59000000e+00	1.24304587e-03	4.61045173e-05
2.59500000e+00	1.24407247e-03	4.63545733e-05
2.60000000e+00	1.22061698e-03	4.58464222e-05
2.60500000e+00	1.26289402e-03	4.84669699e-05
2.61000000e+00	1.22528067e-03	5.36291765e-05
2.61500000e+00	1.21212487e-03	5.85609519e-05
2.62000000e+00	1.21698635e-03	6.47231113e-05
2.62500000e+00	1.19813550e-03	6.90448169e-05
2.63000000e+00	1.18950006e-03	7.56192891e-05
2.63500000e+00	1.18481792e-03	8.37080243e-05
2.64000000e+00	1.19442973e-03	9.27439749e-05
2.64500000e+00	1.19867590e-03	9.95360740e-05
2.65000000e+00	1.17088688e-03	1.02950626e-04
2.65500000e+00	1.19726892e-03	1.13461719e-04
2.66000000e+00	1.15493958e-03	1.17137999e-04
2.66500000e+00	1.18461180e-03	1.34663696e-04
2.67000000e+00	1.17799441e-03	1.45033536e-04
2.67500000e+00	1.13946456e-03	1.63602413e-04
2.68000000e+00	1.16941535e-03	1.95336664e-04
2.68500000e+00	1.22229590e-03	2.76135645e-04
2.69000000e+00	1.20911615e-03	4.34055767e-04
2.69500000e+00	0.00000000e+00	0.00000000e+00
2.70000000e+00	0.00000000e+00	0.00000000e+00
