% Filename : WDL5_00000_00001.h5
% Date & Time : 30-Oct-2025 14:14:49
% X-ray Energy (keV) : 13.30001
% Exposure Time (s) : 0.200
% Photodiode Value : 56640.000
% I0 of Sample : 0
% I0 of Standard : 1
% 
% q(A^-1)   I(q)    I(q)_SE
8.40000000e-01	0.00000000e+00	0.00000000e+00
8.45000000e-01	3.90187335e-03	6.85807231e-04
8.50000000e-01	3.54697310e-03	3.31088474e-04
8.55000000e-01	3.48005248e-03	2.86958243e-04
8.60000000e-01	3.54922037e-03	2.52958410e-04
8.65000000e-01	3.58677973e-03	2.34388437e-04
8.70000000e-01	3.47124972e-03	2.17229948e-04
8.75000000e-01	3.54779642e-03	2.13205903e-04
8.80000000e-01	3.51362858e-03	2.04051729e-04
8.85000000e-01	3.57276991e-03	1.96556977e-04
8.90000000e-01	3.60708197e-03	1.93767161e-04
8.95000000e-01	3.63372002e-03	1.89889519e-04
9.00000000e-01	3.59162580e-03	1.86332826e-04
9.05000000e-01	3.57982051e-03	1.77414961e-04
9.10000000e-01	3.59939403e-03	1.74688171e-04
9.15000000e-01	3.64240459e-03	1.74532399e-04
9.20000000e-01	3.64488819e-03	1.74136319e-04
9.25000000e-01	3.70066561e-03	1.69234779e-04
9.30000000e-01	3.68270797e-03	1.66500961e-04
9.35000000e-01	3.76724830e-03	1.67200002e-04
9.40000000e-01	3.71854075e-03	1.65412731e-04
9.45000000e-01	3.68506445e-03	1.59776547e-04
9.50000000e-01	3.74488930e-03	1.60013152e-04
9.55000000e-01	3.76402665e-03	1.58097076e-04
9.60000000e-01	3.75242918e-03	1.57487969e-04
9.65000000e-01	3.79905928e-03	1.57063787e-04
9.70000000e-01	3.82307803e-03	1.55434411e-04
9.75000000e-01	3.85681926e-03	1.54941019e-04
9.80000000e-01	3.85671476e-03	1.53498998e-04
9.85000000e-01	3.84338148e-03	1.53137030e-04
9.90000000e-01	3.92993184e-03	1.51970812e-04
9.95000000e-01	3.94854692e-03	1.51937978e-04
1.00000000e+00	3.92104590e-03	1.49872788e-04
1.00500000e+00	3.95005346e-03	1.51331224e-04
1.01000000e+00	4.00012360e-03	1.49996004e-04
1.01500000e+00	4.00787705e-03	1.48632230e-04
1.02000000e+00	3.97972315e-03	1.47541314e-04
1.02500000e+00	3.97662556e-03	1.45558880e-04
1.03000000e+00	4.04571981e-03	1.47432339e-04
1.03500000e+00	4.03559820e-03	1.44994447e-04
1.04000000e+00	4.06093235e-03	1.44819148e-04
1.04500000e+00	4.06765550e-03	1.44956837e-04
1.05000000e+00	4.06937965e-03	1.44132115e-04
1.05500000e+00	4.04086576e-03	1.40950533e-04
1.06000000e+00	4.03573715e-03	1.40559060e-04
1.06500000e+00	4.11314211e-03	1.43183752e-04
1.07000000e+00	4.10742788e-03	1.42911974e-04
1.07500000e+00	4.11728685e-03	1.42114425e-04
1.08000000e+00	4.16801336e-03	1.43186394e-04
1.08500000e+00	4.12491892e-03	1.41673883e-04
1.09000000e+00	4.19786318e-03	1.44976478e-04
1.09500000e+00	4.21397228e-03	1.42514089e-04
1.10000000e+00	4.23019586e-03	1.44230014e-04
1.10500000e+00	4.20242313e-03	1.43672628e-04
1.11000000e+00	4.20050972e-03	1.44019186e-04
1.11500000e+00	4.28993877e-03	1.45877114e-04
1.12000000e+00	4.25368919e-03	1.45115532e-04
1.12500000e+00	4.32373999e-03	1.47295946e-04
1.13000000e+00	4.31545430e-03	1.48681742e-04
1.13500000e+00	4.32286989e-03	1.47078794e-04
1.14000000e+00	4.33907715e-03	1.47378507e-04
1.14500000e+00	4.39137009e-03	1.50313517e-04
1.15000000e+00	4.35339898e-03	1.49856340e-04
1.15500000e+00	4.44746787e-03	1.51588828e-04
1.16000000e+00	4.41801277e-03	1.51219862e-04
1.16500000e+00	4.47870709e-03	1.53042755e-04
1.17000000e+00	4.43932410e-03	1.53605451e-04
1.17500000e+00	4.48507951e-03	1.52786348e-04
1.18000000e+00	4.49036447e-03	1.53639285e-04
1.18500000e+00	4.50814843e-03	1.54168697e-04
1.19000000e+00	4.51654222e-03	1.56020129e-04
1.19500000e+00	4.51687501e-03	1.54192772e-04
1.20000000e+00	4.51075999e-03	1.54993292e-04
1.20500000e+00	4.53033801e-03	1.55209038e-04
1.21000000e+00	4.55482670e-03	1.58155667e-04
1.21500000e+00	4.53212329e-03	1.54973665e-04
1.22000000e+00	4.51890868e-03	1.54447007e-04
1.22500000e+00	4.57234177e-03	1.57031806e-04
1.23000000e+00	4.58755372e-03	1.58768241e-04
1.23500000e+00	4.58264613e-03	1.57548281e-04
1.24000000e+00	4.60787118e-03	1.57669716e-04
1.24500000e+00	4.61960503e-03	1.59377186e-04
1.25000000e+00	4.57106486e-03	1.58585146e-04
1.25500000e+00	4.61618404e-03	1.58049545e-04
1.26000000e+00	4.60307784e-03	1.58789203e-04
1.26500000e+00	4.59276569e-03	1.57989259e-04
1.27000000e+00	4.63550271e-03	1.61566923e-04
1.27500000e+00	4.62221754e-03	1.59605896e-04
1.28000000e+00	4.61202307e-03	1.58173271e-04
1.28500000e+00	4.63716336e-03	1.60035585e-04
1.29000000e+00	4.65931102e-03	1.62127007e-04
1.29500000e+00	4.70048193e-03	1.61990991e-04
1.30000000e+00	4.71459968e-03	1.61925197e-04
1.30500000e+00	4.69006273e-03	1.61755586e-04
1.31000000e+00	4.67996106e-03	1.63463807e-04
1.31500000e+00	4.74451073e-03	1.63750482e-04
1.32000000e+00	4.76774155e-03	1.64490510e-04
1.32500000e+00	4.72924896e-03	1.63450631e-04
1.33000000e+00	4.78676055e-03	1.67458693e-04
1.33500000e+00	4.81005244e-03	1.65996936e-04
1.34000000e+00	4.77381401e-03	1.64776196e-04
1.34500000e+00	4.78484244e-03	1.65860566e-04
1.35000000e+00	4.78764421e-03	1.67370227e-04
1.35500000e+00	4.82546469e-03	1.66549825e-04
1.36000000e+00	4.82595597e-03	1.66210205e-04
1.36500000e+00	4.85994462e-03	1.67916113e-04
1.37000000e+00	4.86222003e-03	1.70495108e-04
1.37500000e+00	4.88062123e-03	1.68568278e-04
1.38000000e+00	4.93826482e-03	1.71023486e-04
1.38500000e+00	4.88011906e-03	1.69930715e-04
1.39000000e+00	4.94280681e-03	1.73273711e-04
1.39500000e+00	4.96971591e-03	1.71534850e-04
1.40000000e+00	5.06359253e-03	1.80152215e-04
1.40500000e+00	5.05504863e-03	1.93335891e-04
1.41000000e+00	4.95473069e-03	1.98491338e-04
1.41500000e+00	4.98531192e-03	2.06884663e-04
1.42000000e+00	5.08938569e-03	2.19566076e-04
1.42500000e+00	5.03816399e-03	2.24160146e-04
1.43000000e+00	5.16422950e-03	2.38187981e-04
1.43500000e+00	5.11985321e-03	2.43195869e-04
1.44000000e+00	5.07733886e-03	2.50762303e-04
1.44500000e+00	5.14910902e-03	2.60735785e-04
1.45000000e+00	5.29630849e-03	2.59459068e-04
1.45500000e+00	5.30441499e-03	2.33687604e-04
1.46000000e+00	5.21664885e-03	2.24019429e-04
1.46500000e+00	5.18963414e-03	2.19183001e-04
1.47000000e+00	5.17668024e-03	2.18323402e-04
1.47500000e+00	5.13757247e-03	2.09956615e-04
1.48000000e+00	5.12036870e-03	2.07099686e-04
1.48500000e+00	5.02691191e-03	2.03532256e-04
1.49000000e+00	5.03690578e-03	2.04930922e-04
1.49500000e+00	5.00849919e-03	1.98879393e-04
1.50000000e+00	5.01979435e-03	1.98757730e-04
1.50500000e+00	5.08981969e-03	2.02532031e-04
1.51000000e+00	5.07933474e-03	2.02620579e-04
1.51500000e+00	5.13756682e-03	2.01494364e-04
1.52000000e+00	5.17519777e-03	2.02446642e-04
1.52500000e+00	5.14274754e-03	2.00789434e-04
1.53000000e+00	5.05822915e-03	1.99088479e-04
1.53500000e+00	5.06078212e-03	1.93609351e-04
1.54000000e+00	4.99090093e-03	1.90403844e-04
1.54500000e+00	5.07241028e-03	1.92958766e-04
1.55000000e+00	5.00473156e-03	1.90065716e-04
1.55500000e+00	5.03221830e-03	1.86641630e-04
1.56000000e+00	5.02724454e-03	1.87047019e-04
1.56500000e+00	5.01191276e-03	1.85386225e-04
1.57000000e+00	4.95512082e-03	1.82005540e-04
1.57500000e+00	5.01662828e-03	1.80777814e-04
1.58000000e+00	5.05498345e-03	1.81799120e-04
1.58500000e+00	5.02653569e-03	1.81053722e-04
1.59000000e+00	5.04766197e-03	1.81607631e-04
1.59500000e+00	5.06882465e-03	1.78760468e-04
1.60000000e+00	5.01890232e-03	1.76986775e-04
1.60500000e+00	5.01293641e-03	1.76929839e-04
1.61000000e+00	4.99043602e-03	1.75480543e-04
1.61500000e+00	4.95694880e-03	1.72626063e-04
1.62000000e+00	4.98566290e-03	1.74553290e-04
1.62500000e+00	4.97782994e-03	1.76342282e-04
1.63000000e+00	4.87054702e-03	1.70469203e-04
1.63500000e+00	4.84561421e-03	1.69764714e-04
1.64000000e+00	4.79051047e-03	1.68040316e-04
1.64500000e+00	4.69803290e-03	1.66668756e-04
1.65000000e+00	4.75324649e-03	1.66605822e-04
1.65500000e+00	4.67594087e-03	1.63787393e-04
1.66000000e+00	4.66660905e-03	1.63715156e-04
1.66500000e+00	4.61524858e-03	1.64490874e-04
1.67000000e+00	4.56315313e-03	1.59356510e-04
1.67500000e+00	4.55042335e-03	1.59379889e-04
1.68000000e+00	4.54151655e-03	1.59444255e-04
1.68500000e+00	4.50208795e-03	1.60665550e-04
1.69000000e+00	4.48912620e-03	1.57117078e-04
1.69500000e+00	4.47503707e-03	1.56380368e-04
1.70000000e+00	4.42477835e-03	1.56591974e-04
1.70500000e+00	4.40546531e-03	1.56455824e-04
1.71000000e+00	4.37413194e-03	1.53306068e-04
1.71500000e+00	4.35822711e-03	1.52702374e-04
1.72000000e+00	4.30569321e-03	1.52104852e-04
1.72500000e+00	4.25517879e-03	1.51282903e-04
1.73000000e+00	4.26676184e-03	1.49475290e-04
1.73500000e+00	4.26804922e-03	1.50035837e-04
1.74000000e+00	4.24151016e-03	1.49540037e-04
1.74500000e+00	4.21964170e-03	1.50494529e-04
1.75000000e+00	4.21436697e-03	1.47401703e-04
1.75500000e+00	4.18929792e-03	1.47360217e-04
1.76000000e+00	4.15729979e-03	1.46380428e-04
1.76500000e+00	4.17444243e-03	1.48821600e-04
1.77000000e+00	4.13725921e-03	1.45165818e-04
1.77500000e+00	4.06036279e-03	1.42726003e-04
1.78000000e+00	4.11502055e-03	1.45079339e-04
1.78500000e+00	4.01906047e-03	1.43285532e-04
1.79000000e+00	4.06163547e-03	1.42266731e-04
1.79500000e+00	4.02669943e-03	1.41624266e-04
1.80000000e+00	3.97088346e-03	1.40488940e-04
1.80500000e+00	3.97327943e-03	1.41524994e-04
1.81000000e+00	3.91685611e-03	1.37407372e-04
1.81500000e+00	3.94136339e-03	1.38295819e-04
1.82000000e+00	3.95010981e-03	1.39519500e-04
1.82500000e+00	3.94996106e-03	1.40412415e-04
1.83000000e+00	3.92350700e-03	1.37727002e-04
1.83500000e+00	3.88142899e-03	1.36528894e-04
1.84000000e+00	3.91981828e-03	1.38534567e-04
1.84500000e+00	3.90172473e-03	1.38657105e-04
1.85000000e+00	3.85683628e-03	1.35571849e-04
1.85500000e+00	3.84393856e-03	1.35215653e-04
1.86000000e+00	3.80874864e-03	1.34957963e-04
1.86500000e+00	3.82136420e-03	1.35701577e-04
1.87000000e+00	3.80546959e-03	1.33589937e-04
1.87500000e+00	3.78264367e-03	1.33301976e-04
1.88000000e+00	3.82169725e-03	1.35490766e-04
1.88500000e+00	3.76383976e-03	1.33934496e-04
1.89000000e+00	3.73577682e-03	1.31098792e-04
1.89500000e+00	3.70640685e-03	1.30960360e-04
1.90000000e+00	3.75419360e-03	1.32885939e-04
1.90500000e+00	3.67259485e-03	1.30101215e-04
1.91000000e+00	3.65597505e-03	1.28665192e-04
1.91500000e+00	3.68633599e-03	1.29691646e-04
1.92000000e+00	3.68202722e-03	1.30441806e-04
1.92500000e+00	3.63744268e-03	1.28980176e-04
1.93000000e+00	3.62391982e-03	1.27264777e-04
1.93500000e+00	3.60407517e-03	1.27204746e-04
1.94000000e+00	3.60250657e-03	1.28029356e-04
1.94500000e+00	3.59905268e-03	1.27574159e-04
1.95000000e+00	3.57736105e-03	1.25564005e-04
1.95500000e+00	3.59737053e-03	1.26936621e-04
1.96000000e+00	3.60301846e-03	1.27736798e-04
1.96500000e+00	3.58593717e-03	1.27293479e-04
1.97000000e+00	3.56685377e-03	1.24981630e-04
1.97500000e+00	3.60866086e-03	1.27455101e-04
1.98000000e+00	3.58424115e-03	1.26941899e-04
1.98500000e+00	3.52390977e-03	1.25277549e-04
1.99000000e+00	3.54395480e-03	1.24369271e-04
1.99500000e+00	3.48149424e-03	1.22631830e-04
2.00000000e+00	3.44946345e-03	1.22415246e-04
2.00500000e+00	3.52790308e-03	1.25482152e-04
2.01000000e+00	3.45094368e-03	1.34714872e-04
2.01500000e+00	3.41798013e-03	1.41500227e-04
2.02000000e+00	3.43645037e-03	1.51736568e-04
2.02500000e+00	3.41865481e-03	1.56813718e-04
2.03000000e+00	3.39089921e-03	1.64931939e-04
2.03500000e+00	3.37292845e-03	1.71255169e-04
2.04000000e+00	3.34002581e-03	1.77089647e-04
2.04500000e+00	3.36104898e-03	1.87709026e-04
2.05000000e+00	3.29826428e-03	1.93412126e-04
2.05500000e+00	3.40115873e-03	1.95287228e-04
2.06000000e+00	3.42361981e-03	1.71040311e-04
2.06500000e+00	3.33676746e-03	1.59307418e-04
2.07000000e+00	3.37024804e-03	1.52500197e-04
2.07500000e+00	3.32589438e-03	1.46929053e-04
2.08000000e+00	3.34475265e-03	1.47488451e-04
2.08500000e+00	3.33689657e-03	1.46189445e-04
2.09000000e+00	3.33893397e-03	1.41687310e-04
2.09500000e+00	3.36871017e-03	1.41408628e-04
2.10000000e+00	3.30162976e-03	1.37693000e-04
2.10500000e+00	3.29751992e-03	1.37053655e-04
2.11000000e+00	3.33121308e-03	1.33448829e-04
2.11500000e+00	3.29474589e-03	1.30624092e-04
2.12000000e+00	3.30362577e-03	1.30450598e-04
2.12500000e+00	3.28049565e-03	1.29216657e-04
2.13000000e+00	3.24026487e-03	1.22158646e-04
2.13500000e+00	3.19381461e-03	1.19117125e-04
2.14000000e+00	3.19919925e-03	1.18194447e-04
2.14500000e+00	3.19391410e-03	1.18341134e-04
2.15000000e+00	3.19990621e-03	1.14663381e-04
2.15500000e+00	3.18467306e-03	1.14363949e-04
2.16000000e+00	3.13685324e-03	1.12111813e-04
2.16500000e+00	3.13609959e-03	1.12829303e-04
2.17000000e+00	3.12517325e-03	1.09747513e-04
2.17500000e+00	3.10869490e-03	1.09475373e-04
2.18000000e+00	3.09560908e-03	1.09237832e-04
2.18500000e+00	3.06524173e-03	1.08802373e-04
2.19000000e+00	3.11174095e-03	1.10033643e-04
2.19500000e+00	3.04613420e-03	1.07024437e-04
2.20000000e+00	3.02904809e-03	1.06813343e-04
2.20500000e+00	3.01290109e-03	1.06534658e-04
2.21000000e+00	2.98499004e-03	1.06044379e-04
2.21500000e+00	2.99907212e-03	1.05499981e-04
2.22000000e+00	2.95719897e-03	1.03828528e-04
2.22500000e+00	2.93531376e-03	1.04140985e-04
2.23000000e+00	2.91496547e-03	1.03903418e-04
2.23500000e+00	2.88219401e-03	1.01153440e-04
2.24000000e+00	2.90562255e-03	1.02070704e-04
2.24500000e+00	2.87495337e-03	1.01863005e-04
2.25000000e+00	2.84426371e-03	1.01517775e-04
2.25500000e+00	2.83028111e-03	9.93180723e-05
2.26000000e+00	2.82749730e-03	9.97086375e-05
2.26500000e+00	2.82123478e-03	9.96718524e-05
2.27000000e+00	2.79770013e-03	1.00214274e-04
2.27500000e+00	2.76461171e-03	9.70527435e-05
2.28000000e+00	2.70553071e-03	9.48190921e-05
2.28500000e+00	2.72410405e-03	9.63061801e-05
2.29000000e+00	2.70413882e-03	9.60663385e-05
2.29500000e+00	2.72772304e-03	9.67319618e-05
2.30000000e+00	2.68614740e-03	9.44991494e-05
2.30500000e+00	2.67824019e-03	9.42934468e-05
2.31000000e+00	2.65735608e-03	9.40671062e-05
2.31500000e+00	2.66235185e-03	9.50145265e-05
2.32000000e+00	2.64820440e-03	9.27381579e-05
2.32500000e+00	2.63746437e-03	9.28414478e-05
2.33000000e+00	2.64386085e-03	9.32937128e-05
2.33500000e+00	2.62142294e-03	9.35060048e-05
2.34000000e+00	2.62208854e-03	9.20429833e-05
2.34500000e+00	2.62731492e-03	9.22341847e-05
2.35000000e+00	2.56907719e-03	9.04365678e-05
2.35500000e+00	2.60190321e-03	9.28883857e-05
2.36000000e+00	2.60343858e-03	9.15373453e-05
2.36500000e+00	2.60056473e-03	9.14265653e-05
2.37000000e+00	2.65090706e-03	9.32670354e-05
2.37500000e+00	2.60098311e-03	9.24396978e-05
2.38000000e+00	2.61553305e-03	9.32327060e-05
2.38500000e+00	2.60289983e-03	9.14933674e-05
2.39000000e+00	2.58673757e-03	9.12151668e-05
2.39500000e+00	2.57715321e-03	9.13513795e-05
2.40000000e+00	2.57009454e-03	9.26166898e-05
2.40500000e+00	2.54929264e-03	8.99289131e-05
2.41000000e+00	2.53233325e-03	8.95665249e-05
2.41500000e+00	2.56045324e-03	9.06871415e-05
2.42000000e+00	2.67658901e-03	9.61919031e-05
2.42500000e+00	2.90456220e-03	1.04097253e-04
2.43000000e+00	2.87800966e-03	1.02060187e-04
2.43500000e+00	2.68796371e-03	9.58565465e-05
2.44000000e+00	2.55207031e-03	9.11822391e-05
2.44500000e+00	2.47269875e-03	8.96021991e-05
2.45000000e+00	2.41364316e-03	8.59433792e-05
2.45500000e+00	2.39871771e-03	8.56750945e-05
2.46000000e+00	2.33402314e-03	8.38209372e-05
2.46500000e+00	2.36014714e-03	8.57555799e-05
2.47000000e+00	2.32236942e-03	8.37137752e-05
2.47500000e+00	2.27090140e-03	8.14991027e-05
2.48000000e+00	2.27180808e-03	8.20862491e-05
2.48500000e+00	2.30470769e-03	8.30563192e-05
2.49000000e+00	2.27338201e-03	8.32254334e-05
2.49500000e+00	2.25673913e-03	8.11534044e-05
2.50000000e+00	2.24151135e-03	8.07020356e-05
2.50500000e+00	2.23115908e-03	8.09786927e-05
2.51000000e+00	2.22842026e-03	8.13299203e-05
2.51500000e+00	2.19295190e-03	8.00766442e-05
2.52000000e+00	2.19634693e-03	7.98082152e-05
2.52500000e+00	2.18827460e-03	7.96520905e-05
2.53000000e+00	2.16732789e-03	7.97094812e-05
2.53500000e+00	2.13803639e-03	7.96122016e-05
2.54000000e+00	2.16627321e-03	7.92402508e-05
2.54500000e+00	2.15175768e-03	7.92095344e-05
2.55000000e+00	2.14426268e-03	7.89299609e-05
2.55500000e+00	2.13092274e-03	7.93281056e-05
2.56000000e+00	2.11689222e-03	7.93740071e-05
2.56500000e+00	2.13861455e-03	7.91419516e-05
2.57000000e+00	2.10548607e-03	7.82955193e-05
2.57500000e+00	2.07092050e-03	7.74275694e-05
2.58000000e+00	2.09739009e-03	7.94268308e-05
2.58500000e+00	2.07303046e-03	7.82055815e-05
2.59000000e+00	2.07686997e-03	7.80777683e-05
2.59500000e+00	2.05616511e-03	7.74477462e-05
2.60000000e+00	2.04612863e-03	7.77843660e-05
2.60500000e+00	2.04918554e-03	7.96588769e-05
2.61000000e+00	2.02610809e-03	8.98617987e-05
2.61500000e+00	2.01203902e-03	9.90850936e-05
2.62000000e+00	2.01971455e-03	1.09642157e-04
2.62500000e+00	1.94353990e-03	1.13968040e-04
2.63000000e+00	1.93002777e-03	1.25307821e-04
2.63500000e+00	2.01451450e-03	1.44710744e-04
2.64000000e+00	2.05680036e-03	1.61240146e-04
2.64500000e+00	2.10119123e-03	1.75431136e-04
2.65000000e+00	2.01557964e-03	1.78739365e-04
2.65500000e+00	2.11335750e-03	2.00480866e-04
2.66000000e+00	2.08594505e-03	2.12292986e-04
2.66500000e+00	2.06125051e-03	2.36066187e-04
2.67000000e+00	2.01734423e-03	2.49338861e-04
2.67500000e+00	2.03891870e-03	2.97122078e-04
2.68000000e+00	2.16284091e-03	3.63259046e-04
2.68500000e+00	2.03443867e-03	4.47207907e-04
2.69000000e+00	2.29190777e-03	8.34095495e-04
2.69500000e+00	0.00000000e+00	0.00000000e+00
2.70000000e+00	0.00000000e+00	0.00000000e+00
