% Filename : WDL5_p7_00023_00035.h5
% Date & Time : 30-Oct-2025 16:53:55
% X-ray Energy (keV) : 13.30001
% Exposure Time (s) : 0.500
% Photodiode Value : 140981.000
% I0 of Sample : 0
% I0 of Standard : 1
% 
% q(A^-1)   I(q)    I(q)_SE
8.40000000e-01	0.00000000e+00	0.00000000e+00
8.45000000e-01	2.91626950e-03	5.10797531e-04
8.50000000e-01	2.72354165e-03	2.52732628e-04
8.55000000e-01	2.72644175e-03	2.22653753e-04
8.60000000e-01	2.67256082e-03	1.89100205e-04
8.65000000e-01	2.69149269e-03	1.75430463e-04
8.70000000e-01	2.70513585e-03	1.67938818e-04
8.75000000e-01	2.69637252e-03	1.61116126e-04
8.80000000e-01	2.71262810e-03	1.56760589e-04
8.85000000e-01	2.74078992e-03	1.49714070e-04
8.90000000e-01	2.75844987e-03	1.47480556e-04
8.95000000e-01	2.74553957e-03	1.42743174e-04
9.00000000e-01	2.71621028e-03	1.39952983e-04
9.05000000e-01	2.76074013e-03	1.36032121e-04
9.10000000e-01	2.76710466e-03	1.33637456e-04
9.15000000e-01	2.75000651e-03	1.30825613e-04
9.20000000e-01	2.79277636e-03	1.32649741e-04
9.25000000e-01	2.79922044e-03	1.27355417e-04
9.30000000e-01	2.79768096e-03	1.25870884e-04
9.35000000e-01	2.79011689e-03	1.23074532e-04
9.40000000e-01	2.81244233e-03	1.24487683e-04
9.45000000e-01	2.81769388e-03	1.21534921e-04
9.50000000e-01	2.80867340e-03	1.19428122e-04
9.55000000e-01	2.84062724e-03	1.18569968e-04
9.60000000e-01	2.83596112e-03	1.18457042e-04
9.65000000e-01	2.81102954e-03	1.15661050e-04
9.70000000e-01	2.83925252e-03	1.14764400e-04
9.75000000e-01	2.82808072e-03	1.13092104e-04
9.80000000e-01	2.83262448e-03	1.12287799e-04
9.85000000e-01	2.82929422e-03	1.12335111e-04
9.90000000e-01	2.85940470e-03	1.10038634e-04
9.95000000e-01	2.86793218e-03	1.09811960e-04
1.00000000e+00	2.87098850e-03	1.09302285e-04
1.00500000e+00	2.84143178e-03	1.08384708e-04
1.01000000e+00	2.86669140e-03	1.06914370e-04
1.01500000e+00	2.84761569e-03	1.05180086e-04
1.02000000e+00	2.85429429e-03	1.05411170e-04
1.02500000e+00	2.85241278e-03	1.04100313e-04
1.03000000e+00	2.86231978e-03	1.04162835e-04
1.03500000e+00	2.85960088e-03	1.02466700e-04
1.04000000e+00	2.83952019e-03	1.01183549e-04
1.04500000e+00	2.83953186e-03	1.01306079e-04
1.05000000e+00	2.85717064e-03	1.01318851e-04
1.05500000e+00	2.82598425e-03	9.87761980e-05
1.06000000e+00	2.83763693e-03	9.87737167e-05
1.06500000e+00	2.84624280e-03	9.92834125e-05
1.07000000e+00	2.85087708e-03	9.91092499e-05
1.07500000e+00	2.87502601e-03	9.92804893e-05
1.08000000e+00	2.85129415e-03	9.78033528e-05
1.08500000e+00	2.86819221e-03	9.84746835e-05
1.09000000e+00	2.88363977e-03	9.96574881e-05
1.09500000e+00	2.88878326e-03	9.77552517e-05
1.10000000e+00	2.89527311e-03	9.85912332e-05
1.10500000e+00	2.91707827e-03	9.97338108e-05
1.11000000e+00	2.89745613e-03	9.92451018e-05
1.11500000e+00	2.93647649e-03	9.96798254e-05
1.12000000e+00	2.93555890e-03	1.00172966e-04
1.12500000e+00	2.93483339e-03	9.97814934e-05
1.13000000e+00	2.93712262e-03	1.01087855e-04
1.13500000e+00	2.96298982e-03	1.00729148e-04
1.14000000e+00	2.96879134e-03	1.00712923e-04
1.14500000e+00	2.97244417e-03	1.01644189e-04
1.15000000e+00	2.97035203e-03	1.02170675e-04
1.15500000e+00	2.97743442e-03	1.01299329e-04
1.16000000e+00	3.00225215e-03	1.02548250e-04
1.16500000e+00	2.99334553e-03	1.02111485e-04
1.17000000e+00	2.97488228e-03	1.02751954e-04
1.17500000e+00	3.00924191e-03	1.02504946e-04
1.18000000e+00	3.01688614e-03	1.03148176e-04
1.18500000e+00	3.03788772e-03	1.03730209e-04
1.19000000e+00	3.02866814e-03	1.04490884e-04
1.19500000e+00	3.03799288e-03	1.03556936e-04
1.20000000e+00	3.04277993e-03	1.04297616e-04
1.20500000e+00	3.05465499e-03	1.04522619e-04
1.21000000e+00	3.05450326e-03	1.05879603e-04
1.21500000e+00	3.05298513e-03	1.04168142e-04
1.22000000e+00	3.06030314e-03	1.04464962e-04
1.22500000e+00	3.05335906e-03	1.04656369e-04
1.23000000e+00	3.05447837e-03	1.05586422e-04
1.23500000e+00	3.06127190e-03	1.05059660e-04
1.24000000e+00	3.07056521e-03	1.04875299e-04
1.24500000e+00	3.08551369e-03	1.06202530e-04
1.25000000e+00	3.07225100e-03	1.06414148e-04
1.25500000e+00	3.07007316e-03	1.05037308e-04
1.26000000e+00	3.07955370e-03	1.05931460e-04
1.26500000e+00	3.09019914e-03	1.05915354e-04
1.27000000e+00	3.09834932e-03	1.07821547e-04
1.27500000e+00	3.09002721e-03	1.06403376e-04
1.28000000e+00	3.08401709e-03	1.05569446e-04
1.28500000e+00	3.08822688e-03	1.06340074e-04
1.29000000e+00	3.09655814e-03	1.07500878e-04
1.29500000e+00	3.12071530e-03	1.07223381e-04
1.30000000e+00	3.10443499e-03	1.06458235e-04
1.30500000e+00	3.11548419e-03	1.07329267e-04
1.31000000e+00	3.09049138e-03	1.07708893e-04
1.31500000e+00	3.12881745e-03	1.07690418e-04
1.32000000e+00	3.10118862e-03	1.06611922e-04
1.32500000e+00	3.10681117e-03	1.07145835e-04
1.33000000e+00	3.10330081e-03	1.08297230e-04
1.33500000e+00	3.12865743e-03	1.07699700e-04
1.34000000e+00	3.13079333e-03	1.07804332e-04
1.34500000e+00	3.13562539e-03	1.08384819e-04
1.35000000e+00	3.12250085e-03	1.09061756e-04
1.35500000e+00	3.12369829e-03	1.07544171e-04
1.36000000e+00	3.10313201e-03	1.06677138e-04
1.36500000e+00	3.10870757e-03	1.07172941e-04
1.37000000e+00	3.11553551e-03	1.09025233e-04
1.37500000e+00	3.10052348e-03	1.06838306e-04
1.38000000e+00	3.12244705e-03	1.07866849e-04
1.38500000e+00	3.12419662e-03	1.08500039e-04
1.39000000e+00	3.11571882e-03	1.08904281e-04
1.39500000e+00	3.12782406e-03	1.07741154e-04
1.40000000e+00	3.15685777e-03	1.12090982e-04
1.40500000e+00	3.11145920e-03	1.18870084e-04
1.41000000e+00	3.14074149e-03	1.25606962e-04
1.41500000e+00	3.07472616e-03	1.27576986e-04
1.42000000e+00	3.09508767e-03	1.33491213e-04
1.42500000e+00	3.06069253e-03	1.35942172e-04
1.43000000e+00	3.04053666e-03	1.40074285e-04
1.43500000e+00	3.07446133e-03	1.46146722e-04
1.44000000e+00	3.03090942e-03	1.49569993e-04
1.44500000e+00	3.01252448e-03	1.52514293e-04
1.45000000e+00	3.11220593e-03	1.52543722e-04
1.45500000e+00	3.10915364e-03	1.36670753e-04
1.46000000e+00	3.10163291e-03	1.33150753e-04
1.46500000e+00	3.07795024e-03	1.29862664e-04
1.47000000e+00	3.08533740e-03	1.29775776e-04
1.47500000e+00	3.07791125e-03	1.25815188e-04
1.48000000e+00	3.08177507e-03	1.24579954e-04
1.48500000e+00	3.09119351e-03	1.25093016e-04
1.49000000e+00	3.08799790e-03	1.25290471e-04
1.49500000e+00	3.10839809e-03	1.23263468e-04
1.50000000e+00	3.09978453e-03	1.22609644e-04
1.50500000e+00	3.09717799e-03	1.23054716e-04
1.51000000e+00	3.07406047e-03	1.22385429e-04
1.51500000e+00	3.09490360e-03	1.21189180e-04
1.52000000e+00	3.08607886e-03	1.20482210e-04
1.52500000e+00	3.13964856e-03	1.22409991e-04
1.53000000e+00	3.07703869e-03	1.20701684e-04
1.53500000e+00	3.08080891e-03	1.17369353e-04
1.54000000e+00	3.09742420e-03	1.17862413e-04
1.54500000e+00	3.05222994e-03	1.15886580e-04
1.55000000e+00	3.05217499e-03	1.15474845e-04
1.55500000e+00	3.02535064e-03	1.11969553e-04
1.56000000e+00	3.03359866e-03	1.12552366e-04
1.56500000e+00	2.99738739e-03	1.10576893e-04
1.57000000e+00	3.01490052e-03	1.10446864e-04
1.57500000e+00	2.97695439e-03	1.07116467e-04
1.58000000e+00	2.99063820e-03	1.07391179e-04
1.58500000e+00	3.00104645e-03	1.07665577e-04
1.59000000e+00	2.95968244e-03	1.06305069e-04
1.59500000e+00	2.95126199e-03	1.03994578e-04
1.60000000e+00	2.97861637e-03	1.04883114e-04
1.60500000e+00	2.92812029e-03	1.03065123e-04
1.61000000e+00	2.92678163e-03	1.02682145e-04
1.61500000e+00	2.93155231e-03	1.01944092e-04
1.62000000e+00	2.93830913e-03	1.02614129e-04
1.62500000e+00	2.90445829e-03	1.02625571e-04
1.63000000e+00	2.90713752e-03	1.01561724e-04
1.63500000e+00	2.90617985e-03	1.01475727e-04
1.64000000e+00	2.89270839e-03	1.01131731e-04
1.64500000e+00	2.89232313e-03	1.02134167e-04
1.65000000e+00	2.87091819e-03	1.00349657e-04
1.65500000e+00	2.86852193e-03	1.00075206e-04
1.66000000e+00	2.85596547e-03	9.98527933e-05
1.66500000e+00	2.89535010e-03	1.02884314e-04
1.67000000e+00	2.84435740e-03	9.90242724e-05
1.67500000e+00	2.85074703e-03	9.95059099e-05
1.68000000e+00	2.86410641e-03	1.00237503e-04
1.68500000e+00	2.84410246e-03	1.01178734e-04
1.69000000e+00	2.84070597e-03	9.91211131e-05
1.69500000e+00	2.83200586e-03	9.85999286e-05
1.70000000e+00	2.81021921e-03	9.90527414e-05
1.70500000e+00	2.80335799e-03	9.91125884e-05
1.71000000e+00	2.79142199e-03	9.75261029e-05
1.71500000e+00	2.79384658e-03	9.75171487e-05
1.72000000e+00	2.78615010e-03	9.80294479e-05
1.72500000e+00	2.79649258e-03	9.90934497e-05
1.73000000e+00	2.77168490e-03	9.67967720e-05
1.73500000e+00	2.76874446e-03	9.70636516e-05
1.74000000e+00	2.75119790e-03	9.66179748e-05
1.74500000e+00	2.75245369e-03	9.78804797e-05
1.75000000e+00	2.75987430e-03	9.62325974e-05
1.75500000e+00	2.73892110e-03	9.61198101e-05
1.76000000e+00	2.72734028e-03	9.56893597e-05
1.76500000e+00	2.72861825e-03	9.68932041e-05
1.77000000e+00	2.71138152e-03	9.47049510e-05
1.77500000e+00	2.69128307e-03	9.41761295e-05
1.78000000e+00	2.70311399e-03	9.49498012e-05
1.78500000e+00	2.70984586e-03	9.62423593e-05
1.79000000e+00	2.68066032e-03	9.35982555e-05
1.79500000e+00	2.70272773e-03	9.45845937e-05
1.80000000e+00	2.67282444e-03	9.41549096e-05
1.80500000e+00	2.68562820e-03	9.51654000e-05
1.81000000e+00	2.68184023e-03	9.36137184e-05
1.81500000e+00	2.65161539e-03	9.26522530e-05
1.82000000e+00	2.64034360e-03	9.29404212e-05
1.82500000e+00	2.65463364e-03	9.39594041e-05
1.83000000e+00	2.63928604e-03	9.22496238e-05
1.83500000e+00	2.64866317e-03	9.26893000e-05
1.84000000e+00	2.61632830e-03	9.20825754e-05
1.84500000e+00	2.60826180e-03	9.22797601e-05
1.85000000e+00	2.60699964e-03	9.12863346e-05
1.85500000e+00	2.58359161e-03	9.04861327e-05
1.86000000e+00	2.58974779e-03	9.13513630e-05
1.86500000e+00	2.57936255e-03	9.11803813e-05
1.87000000e+00	2.56374561e-03	8.96489162e-05
1.87500000e+00	2.58656758e-03	9.07242824e-05
1.88000000e+00	2.58199899e-03	9.09171930e-05
1.88500000e+00	2.53990690e-03	9.00214717e-05
1.89000000e+00	2.52676134e-03	8.83042677e-05
1.89500000e+00	2.52090731e-03	8.86404700e-05
1.90000000e+00	2.51893186e-03	8.87680549e-05
1.90500000e+00	2.51353851e-03	8.86876552e-05
1.91000000e+00	2.52030954e-03	8.82530546e-05
1.91500000e+00	2.47624114e-03	8.68371050e-05
1.92000000e+00	2.48344220e-03	8.75787956e-05
1.92500000e+00	2.48008023e-03	8.76250617e-05
1.93000000e+00	2.46866127e-03	8.62861526e-05
1.93500000e+00	2.46394282e-03	8.63828671e-05
1.94000000e+00	2.45007995e-03	8.66666519e-05
1.94500000e+00	2.44783319e-03	8.63308419e-05
1.95000000e+00	2.43805740e-03	8.51718910e-05
1.95500000e+00	2.44030929e-03	8.55986806e-05
1.96000000e+00	2.44391494e-03	8.62238480e-05
1.96500000e+00	2.41052586e-03	8.51365750e-05
1.97000000e+00	2.42838654e-03	8.47483275e-05
1.97500000e+00	2.38576116e-03	8.38466268e-05
1.98000000e+00	2.40425355e-03	8.49166271e-05
1.98500000e+00	2.39013796e-03	8.44444742e-05
1.99000000e+00	2.37737425e-03	8.30515123e-05
1.99500000e+00	2.36998014e-03	8.31004246e-05
2.00000000e+00	2.36303586e-03	8.34310564e-05
2.00500000e+00	2.38589231e-03	8.43473104e-05
2.01000000e+00	2.35980199e-03	9.16938713e-05
2.01500000e+00	2.33761173e-03	9.64351871e-05
2.02000000e+00	2.31428773e-03	1.01789237e-04
2.02500000e+00	2.30870377e-03	1.05480536e-04
2.03000000e+00	2.26200017e-03	1.09531848e-04
2.03500000e+00	2.28256547e-03	1.15266564e-04
2.04000000e+00	2.24793911e-03	1.18833226e-04
2.04500000e+00	2.21670677e-03	1.23344032e-04
2.05000000e+00	2.19429193e-03	1.28095428e-04
2.05500000e+00	2.24050057e-03	1.28158102e-04
2.06000000e+00	2.24993665e-03	1.12098278e-04
2.06500000e+00	2.25798866e-03	1.07340020e-04
2.07000000e+00	2.23715177e-03	1.00738949e-04
2.07500000e+00	2.26322081e-03	9.96523607e-05
2.08000000e+00	2.23778117e-03	9.82739804e-05
2.08500000e+00	2.23369248e-03	9.73471963e-05
2.09000000e+00	2.22722943e-03	9.41081191e-05
2.09500000e+00	2.22743201e-03	9.30783930e-05
2.10000000e+00	2.21541861e-03	9.19133710e-05
2.10500000e+00	2.19604834e-03	9.07327535e-05
2.11000000e+00	2.19406954e-03	8.74115883e-05
2.11500000e+00	2.20413699e-03	8.68773611e-05
2.12000000e+00	2.19865120e-03	8.62601904e-05
2.12500000e+00	2.15417258e-03	8.42285971e-05
2.13000000e+00	2.14158799e-03	8.04807842e-05
2.13500000e+00	2.12297584e-03	7.87321810e-05
2.14000000e+00	2.11885402e-03	7.78705604e-05
2.14500000e+00	2.10853599e-03	7.76878705e-05
2.15000000e+00	2.08011042e-03	7.41299473e-05
2.15500000e+00	2.07532056e-03	7.41063700e-05
2.16000000e+00	2.07780005e-03	7.38289994e-05
2.16500000e+00	2.07508633e-03	7.42238245e-05
2.17000000e+00	2.05794337e-03	7.18555304e-05
2.17500000e+00	2.03153826e-03	7.11214950e-05
2.18000000e+00	2.02882516e-03	7.12536557e-05
2.18500000e+00	2.01429573e-03	7.10751918e-05
2.19000000e+00	2.01754408e-03	7.09789763e-05
2.19500000e+00	2.00224724e-03	7.00989549e-05
2.20000000e+00	1.99513414e-03	6.99461352e-05
2.20500000e+00	1.98793745e-03	6.99633434e-05
2.21000000e+00	1.97297599e-03	6.98643274e-05
2.21500000e+00	1.94753892e-03	6.80962198e-05
2.22000000e+00	1.93091405e-03	6.74687990e-05
2.22500000e+00	1.92467654e-03	6.78541921e-05
2.23000000e+00	1.92216501e-03	6.81805355e-05
2.23500000e+00	1.92416412e-03	6.72102969e-05
2.24000000e+00	1.89392308e-03	6.62347030e-05
2.24500000e+00	1.88469582e-03	6.63963287e-05
2.25000000e+00	1.87936924e-03	6.67431542e-05
2.25500000e+00	1.87442724e-03	6.54297252e-05
2.26000000e+00	1.84963694e-03	6.47139059e-05
2.26500000e+00	1.84611762e-03	6.48637967e-05
2.27000000e+00	1.83146074e-03	6.53224767e-05
2.27500000e+00	1.83584799e-03	6.41675029e-05
2.28000000e+00	1.80617838e-03	6.31228432e-05
2.28500000e+00	1.77693757e-03	6.24899052e-05
2.29000000e+00	1.78971262e-03	6.32937026e-05
2.29500000e+00	1.77561796e-03	6.26151471e-05
2.30000000e+00	1.77150187e-03	6.19145384e-05
2.30500000e+00	1.74257959e-03	6.10320113e-05
2.31000000e+00	1.73944077e-03	6.12211068e-05
2.31500000e+00	1.72668678e-03	6.13129247e-05
2.32000000e+00	1.71314703e-03	5.95559476e-05
2.32500000e+00	1.72062206e-03	6.03585860e-05
2.33000000e+00	1.70199428e-03	5.97190104e-05
2.33500000e+00	1.68789239e-03	5.98915117e-05
2.34000000e+00	1.69513095e-03	5.91879642e-05
2.34500000e+00	1.67977959e-03	5.86534927e-05
2.35000000e+00	1.67991161e-03	5.88541581e-05
2.35500000e+00	1.66585862e-03	5.91183585e-05
2.36000000e+00	1.64752136e-03	5.76715862e-05
2.36500000e+00	1.63424513e-03	5.71383477e-05
2.37000000e+00	1.61794693e-03	5.65893777e-05
2.37500000e+00	1.61364972e-03	5.69983594e-05
2.38000000e+00	1.62706792e-03	5.76817151e-05
2.38500000e+00	1.61860159e-03	5.65776685e-05
2.39000000e+00	1.58784444e-03	5.57259714e-05
2.39500000e+00	1.57936334e-03	5.57042829e-05
2.40000000e+00	1.57244273e-03	5.62902388e-05
2.40500000e+00	1.55977744e-03	5.46678048e-05
2.41000000e+00	1.55881006e-03	5.49051141e-05
2.41500000e+00	1.55100289e-03	5.45661413e-05
2.42000000e+00	1.57538137e-03	5.61827606e-05
2.42500000e+00	1.59039823e-03	5.65879572e-05
2.43000000e+00	1.56893748e-03	5.53341335e-05
2.43500000e+00	1.54193052e-03	5.45465790e-05
2.44000000e+00	1.52432347e-03	5.40290445e-05
2.44500000e+00	1.49355120e-03	5.36305600e-05
2.45000000e+00	1.48758846e-03	5.24957791e-05
2.45500000e+00	1.47990862e-03	5.24519429e-05
2.46000000e+00	1.46207588e-03	5.19836438e-05
2.46500000e+00	1.45301980e-03	5.22829705e-05
2.47000000e+00	1.45602070e-03	5.18723696e-05
2.47500000e+00	1.44524989e-03	5.12272286e-05
2.48000000e+00	1.43486947e-03	5.12048530e-05
2.48500000e+00	1.43175616e-03	5.10679341e-05
2.49000000e+00	1.42854894e-03	5.17564866e-05
2.49500000e+00	1.41373586e-03	5.02029608e-05
2.50000000e+00	1.39201929e-03	4.96392625e-05
2.50500000e+00	1.38857338e-03	4.97476176e-05
2.51000000e+00	1.37857428e-03	4.97267604e-05
2.51500000e+00	1.38526272e-03	5.00794599e-05
2.52000000e+00	1.39258813e-03	4.99000455e-05
2.52500000e+00	1.36924285e-03	4.92277243e-05
2.53000000e+00	1.36412655e-03	4.95450073e-05
2.53500000e+00	1.34582186e-03	4.95074518e-05
2.54000000e+00	1.32992399e-03	4.81327757e-05
2.54500000e+00	1.32021500e-03	4.79004549e-05
2.55000000e+00	1.32487108e-03	4.82733691e-05
2.55500000e+00	1.30801776e-03	4.80483063e-05
2.56000000e+00	1.32546888e-03	4.90254477e-05
2.56500000e+00	1.30944696e-03	4.80041249e-05
2.57000000e+00	1.29836313e-03	4.77745767e-05
2.57500000e+00	1.29396827e-03	4.77428291e-05
2.58000000e+00	1.29081990e-03	4.84463896e-05
2.58500000e+00	1.27538685e-03	4.75437510e-05
2.59000000e+00	1.26255202e-03	4.68292292e-05
2.59500000e+00	1.26597179e-03	4.71464269e-05
2.60000000e+00	1.25324328e-03	4.71076461e-05
2.60500000e+00	1.27082430e-03	4.87181506e-05
2.61000000e+00	1.26098598e-03	5.50566284e-05
2.61500000e+00	1.22853564e-03	5.93554202e-05
2.62000000e+00	1.22577703e-03	6.51470123e-05
2.62500000e+00	1.23006077e-03	7.07450127e-05
2.63000000e+00	1.22189213e-03	7.76216175e-05
2.63500000e+00	1.20865485e-03	8.53980658e-05
2.64000000e+00	1.25884069e-03	9.78446153e-05
2.64500000e+00	1.23428219e-03	1.02687881e-04
2.65000000e+00	1.20967693e-03	1.05971039e-04
2.65500000e+00	1.21667896e-03	1.14639641e-04
2.66000000e+00	1.22664308e-03	1.24254724e-04
2.66500000e+00	1.16190394e-03	1.32430284e-04
2.67000000e+00	1.22107803e-03	1.50636671e-04
2.67500000e+00	1.23953463e-03	1.78125706e-04
2.68000000e+00	1.12614490e-03	1.89539644e-04
2.68500000e+00	1.10122159e-03	2.45617643e-04
2.69000000e+00	1.28108693e-03	4.54038526e-04
2.69500000e+00	0.00000000e+00	0.00000000e+00
2.70000000e+00	0.00000000e+00	0.00000000e+00
