% Filename : WDL5_p7_00025_00055.h5
% Date & Time : 30-Oct-2025 16:58:40
% X-ray Energy (keV) : 13.30001
% Exposure Time (s) : 0.500
% Photodiode Value : 144184.000
% I0 of Sample : 0
% I0 of Standard : 1
% 
% q(A^-1)   I(q)    I(q)_SE
8.40000000e-01	0.00000000e+00	0.00000000e+00
8.45000000e-01	2.77342693e-03	4.85939289e-04
8.50000000e-01	2.67593473e-03	2.48393408e-04
8.55000000e-01	2.59193533e-03	2.12178694e-04
8.60000000e-01	2.60742516e-03	1.84602942e-04
8.65000000e-01	2.62519345e-03	1.71258223e-04
8.70000000e-01	2.61955959e-03	1.62946838e-04
8.75000000e-01	2.63723181e-03	1.57622596e-04
8.80000000e-01	2.62577338e-03	1.51761833e-04
8.85000000e-01	2.60639829e-03	1.42505274e-04
8.90000000e-01	2.65969766e-03	1.42305955e-04
8.95000000e-01	2.63364739e-03	1.36900261e-04
9.00000000e-01	2.62565747e-03	1.35226401e-04
9.05000000e-01	2.65725768e-03	1.30753433e-04
9.10000000e-01	2.64223955e-03	1.27843252e-04
9.15000000e-01	2.66333123e-03	1.26717770e-04
9.20000000e-01	2.68805765e-03	1.27688810e-04
9.25000000e-01	2.67183095e-03	1.21519226e-04
9.30000000e-01	2.68393809e-03	1.20853339e-04
9.35000000e-01	2.69883558e-03	1.19074258e-04
9.40000000e-01	2.67683360e-03	1.18473159e-04
9.45000000e-01	2.69909907e-03	1.16542297e-04
9.50000000e-01	2.70761111e-03	1.15214648e-04
9.55000000e-01	2.72192097e-03	1.13774808e-04
9.60000000e-01	2.71844498e-03	1.13672146e-04
9.65000000e-01	2.73594615e-03	1.12460779e-04
9.70000000e-01	2.71629604e-03	1.09845987e-04
9.75000000e-01	2.74727368e-03	1.09952597e-04
9.80000000e-01	2.71145828e-03	1.07589112e-04
9.85000000e-01	2.74241537e-03	1.08877086e-04
9.90000000e-01	2.76247921e-03	1.06315457e-04
9.95000000e-01	2.72645215e-03	1.04473161e-04
1.00000000e+00	2.75360737e-03	1.05020011e-04
1.00500000e+00	2.74101048e-03	1.04490005e-04
1.01000000e+00	2.73421117e-03	1.02068760e-04
1.01500000e+00	2.74183004e-03	1.01494653e-04
1.02000000e+00	2.74028703e-03	1.01276035e-04
1.02500000e+00	2.72334891e-03	9.94165762e-05
1.03000000e+00	2.74363753e-03	9.98711158e-05
1.03500000e+00	2.73104160e-03	9.79830869e-05
1.04000000e+00	2.72077011e-03	9.69674334e-05
1.04500000e+00	2.71372918e-03	9.68671740e-05
1.05000000e+00	2.71201744e-03	9.61666388e-05
1.05500000e+00	2.69639387e-03	9.42004094e-05
1.06000000e+00	2.70269325e-03	9.41621923e-05
1.06500000e+00	2.71148433e-03	9.45118975e-05
1.07000000e+00	2.69711422e-03	9.39029899e-05
1.07500000e+00	2.72824298e-03	9.42637783e-05
1.08000000e+00	2.73773433e-03	9.40362294e-05
1.08500000e+00	2.70214379e-03	9.28743575e-05
1.09000000e+00	2.74329017e-03	9.48613332e-05
1.09500000e+00	2.72878088e-03	9.24549212e-05
1.10000000e+00	2.73631766e-03	9.32566375e-05
1.10500000e+00	2.76267379e-03	9.44578852e-05
1.11000000e+00	2.77637057e-03	9.50062116e-05
1.11500000e+00	2.76778427e-03	9.40605487e-05
1.12000000e+00	2.79200892e-03	9.52990778e-05
1.12500000e+00	2.79135660e-03	9.50411888e-05
1.13000000e+00	2.78458269e-03	9.59248972e-05
1.13500000e+00	2.80733951e-03	9.55006456e-05
1.14000000e+00	2.80945824e-03	9.54860540e-05
1.14500000e+00	2.80853452e-03	9.61545866e-05
1.15000000e+00	2.82471691e-03	9.71620386e-05
1.15500000e+00	2.81535839e-03	9.59782872e-05
1.16000000e+00	2.82904875e-03	9.67224144e-05
1.16500000e+00	2.82261526e-03	9.63023688e-05
1.17000000e+00	2.86183230e-03	9.87651976e-05
1.17500000e+00	2.83604871e-03	9.65962371e-05
1.18000000e+00	2.86178109e-03	9.78837017e-05
1.18500000e+00	2.87770872e-03	9.82790771e-05
1.19000000e+00	2.88035745e-03	9.94963091e-05
1.19500000e+00	2.86293714e-03	9.75955098e-05
1.20000000e+00	2.86978979e-03	9.84105663e-05
1.20500000e+00	2.88263850e-03	9.87256998e-05
1.21000000e+00	2.87562059e-03	9.97264749e-05
1.21500000e+00	2.88408209e-03	9.84594330e-05
1.22000000e+00	2.88462449e-03	9.86023381e-05
1.22500000e+00	2.89029740e-03	9.92174926e-05
1.23000000e+00	2.87982415e-03	9.96005137e-05
1.23500000e+00	2.89059808e-03	9.92053555e-05
1.24000000e+00	2.89522702e-03	9.89603987e-05
1.24500000e+00	2.89948014e-03	9.98567062e-05
1.25000000e+00	2.90510811e-03	1.00635346e-04
1.25500000e+00	2.88583720e-03	9.87670438e-05
1.26000000e+00	2.90285011e-03	9.99248310e-05
1.26500000e+00	2.89661556e-03	9.93332773e-05
1.27000000e+00	2.89534624e-03	1.00769618e-04
1.27500000e+00	2.92759808e-03	1.00853120e-04
1.28000000e+00	2.91462171e-03	9.98293827e-05
1.28500000e+00	2.91357654e-03	1.00261471e-04
1.29000000e+00	2.91645689e-03	1.01309788e-04
1.29500000e+00	2.91603309e-03	1.00123762e-04
1.30000000e+00	2.91204986e-03	9.98987132e-05
1.30500000e+00	2.92844959e-03	1.00826941e-04
1.31000000e+00	2.90682350e-03	1.01344533e-04
1.31500000e+00	2.92119448e-03	1.00582965e-04
1.32000000e+00	2.92379146e-03	1.00612674e-04
1.32500000e+00	2.91996020e-03	1.00720175e-04
1.33000000e+00	2.94357967e-03	1.02740032e-04
1.33500000e+00	2.90810523e-03	1.00139009e-04
1.34000000e+00	2.93353464e-03	1.01076367e-04
1.34500000e+00	2.92008014e-03	1.00985292e-04
1.35000000e+00	2.90594504e-03	1.01478713e-04
1.35500000e+00	2.92700461e-03	1.00802038e-04
1.36000000e+00	2.90500498e-03	9.99097085e-05
1.36500000e+00	2.89352074e-03	9.97956897e-05
1.37000000e+00	2.90949635e-03	1.01871404e-04
1.37500000e+00	2.92393685e-03	1.00758970e-04
1.38000000e+00	2.90539172e-03	1.00398219e-04
1.38500000e+00	2.89164873e-03	1.00483447e-04
1.39000000e+00	2.90760109e-03	1.01701671e-04
1.39500000e+00	2.91275950e-03	1.00374871e-04
1.40000000e+00	2.92167247e-03	1.03740576e-04
1.40500000e+00	2.87476544e-03	1.09856738e-04
1.41000000e+00	2.88798552e-03	1.15559576e-04
1.41500000e+00	2.84207960e-03	1.17875048e-04
1.42000000e+00	2.86190475e-03	1.23450723e-04
1.42500000e+00	2.83333069e-03	1.25822612e-04
1.43000000e+00	2.80774335e-03	1.29513821e-04
1.43500000e+00	2.77425749e-03	1.31652801e-04
1.44000000e+00	2.81338031e-03	1.38832406e-04
1.44500000e+00	2.76840448e-03	1.40266718e-04
1.45000000e+00	2.88499621e-03	1.41248038e-04
1.45500000e+00	2.86926560e-03	1.26242450e-04
1.46000000e+00	2.87768921e-03	1.23642356e-04
1.46500000e+00	2.85976026e-03	1.20648989e-04
1.47000000e+00	2.84112150e-03	1.19675790e-04
1.47500000e+00	2.84725776e-03	1.16285111e-04
1.48000000e+00	2.86024197e-03	1.15700297e-04
1.48500000e+00	2.82794650e-03	1.14400290e-04
1.49000000e+00	2.82943576e-03	1.14782213e-04
1.49500000e+00	2.86980072e-03	1.13885537e-04
1.50000000e+00	2.87836402e-03	1.13779126e-04
1.50500000e+00	2.85143779e-03	1.13345927e-04
1.51000000e+00	2.85225634e-03	1.13725205e-04
1.51500000e+00	2.88054352e-03	1.12813301e-04
1.52000000e+00	2.87020510e-03	1.12109490e-04
1.52500000e+00	2.87303954e-03	1.12028652e-04
1.53000000e+00	2.86960999e-03	1.12520246e-04
1.53500000e+00	2.87390565e-03	1.09574391e-04
1.54000000e+00	2.86582930e-03	1.08980396e-04
1.54500000e+00	2.85416279e-03	1.08407724e-04
1.55000000e+00	2.84542965e-03	1.07772348e-04
1.55500000e+00	2.83771918e-03	1.05010213e-04
1.56000000e+00	2.83598120e-03	1.05252726e-04
1.56500000e+00	2.80306789e-03	1.03525259e-04
1.57000000e+00	2.79614109e-03	1.02441800e-04
1.57500000e+00	2.78888016e-03	1.00295231e-04
1.58000000e+00	2.79471036e-03	1.00327294e-04
1.58500000e+00	2.76570795e-03	9.92909634e-05
1.59000000e+00	2.75742061e-03	9.90743394e-05
1.59500000e+00	2.75056891e-03	9.69717128e-05
1.60000000e+00	2.73931734e-03	9.65096996e-05
1.60500000e+00	2.74848500e-03	9.68572908e-05
1.61000000e+00	2.74105796e-03	9.61889985e-05
1.61500000e+00	2.73728714e-03	9.51870931e-05
1.62000000e+00	2.69473648e-03	9.41307122e-05
1.62500000e+00	2.71958561e-03	9.60269975e-05
1.63000000e+00	2.70287353e-03	9.44676328e-05
1.63500000e+00	2.72184018e-03	9.50467218e-05
1.64000000e+00	2.68701101e-03	9.39437888e-05
1.64500000e+00	2.68147259e-03	9.49123199e-05
1.65000000e+00	2.69570764e-03	9.43296001e-05
1.65500000e+00	2.69470890e-03	9.40830644e-05
1.66000000e+00	2.68603036e-03	9.38787024e-05
1.66500000e+00	2.66904029e-03	9.48718584e-05
1.67000000e+00	2.67590020e-03	9.31990020e-05
1.67500000e+00	2.66555063e-03	9.30876285e-05
1.68000000e+00	2.66285929e-03	9.32110503e-05
1.68500000e+00	2.63364546e-03	9.37217959e-05
1.69000000e+00	2.63982836e-03	9.20801719e-05
1.69500000e+00	2.63204446e-03	9.17330430e-05
1.70000000e+00	2.61337656e-03	9.21461301e-05
1.70500000e+00	2.64075362e-03	9.34873424e-05
1.71000000e+00	2.61973494e-03	9.15676396e-05
1.71500000e+00	2.62368850e-03	9.16627621e-05
1.72000000e+00	2.61000230e-03	9.18400218e-05
1.72500000e+00	2.58670831e-03	9.16233104e-05
1.73000000e+00	2.58570044e-03	9.03691426e-05
1.73500000e+00	2.58928617e-03	9.07802348e-05
1.74000000e+00	2.57282270e-03	9.03834915e-05
1.74500000e+00	2.56961370e-03	9.13260048e-05
1.75000000e+00	2.57775541e-03	8.98665028e-05
1.75500000e+00	2.56348931e-03	8.99442429e-05
1.76000000e+00	2.56382316e-03	8.98997993e-05
1.76500000e+00	2.54925606e-03	9.05674502e-05
1.77000000e+00	2.53625538e-03	8.85802227e-05
1.77500000e+00	2.53489902e-03	8.89100938e-05
1.78000000e+00	2.52543502e-03	8.87551138e-05
1.78500000e+00	2.54372532e-03	9.03586400e-05
1.79000000e+00	2.51857556e-03	8.79386093e-05
1.79500000e+00	2.49906287e-03	8.75136469e-05
1.80000000e+00	2.51312385e-03	8.85378470e-05
1.80500000e+00	2.49335306e-03	8.83467394e-05
1.81000000e+00	2.48857956e-03	8.69333785e-05
1.81500000e+00	2.49208663e-03	8.71735301e-05
1.82000000e+00	2.47443187e-03	8.70483433e-05
1.82500000e+00	2.49131702e-03	8.81894458e-05
1.83000000e+00	2.45145271e-03	8.56904834e-05
1.83500000e+00	2.45771184e-03	8.61155577e-05
1.84000000e+00	2.45323924e-03	8.64026894e-05
1.84500000e+00	2.44645255e-03	8.66608887e-05
1.85000000e+00	2.43369768e-03	8.52127459e-05
1.85500000e+00	2.42482133e-03	8.49240191e-05
1.86000000e+00	2.42006463e-03	8.53361049e-05
1.86500000e+00	2.42930893e-03	8.58785054e-05
1.87000000e+00	2.40506087e-03	8.41377599e-05
1.87500000e+00	2.40669090e-03	8.44055218e-05
1.88000000e+00	2.41826019e-03	8.52203350e-05
1.88500000e+00	2.39375234e-03	8.48419446e-05
1.89000000e+00	2.38499049e-03	8.33509815e-05
1.89500000e+00	2.37574539e-03	8.34630343e-05
1.90000000e+00	2.36859093e-03	8.34875363e-05
1.90500000e+00	2.36307939e-03	8.33480324e-05
1.91000000e+00	2.35335600e-03	8.24902043e-05
1.91500000e+00	2.33627958e-03	8.19274709e-05
1.92000000e+00	2.31393661e-03	8.16425577e-05
1.92500000e+00	2.34193308e-03	8.26337825e-05
1.93000000e+00	2.33294886e-03	8.16270695e-05
1.93500000e+00	2.31478075e-03	8.12145117e-05
1.94000000e+00	2.33597287e-03	8.25639159e-05
1.94500000e+00	2.28293945e-03	8.05181196e-05
1.95000000e+00	2.27868767e-03	7.96238084e-05
1.95500000e+00	2.30087717e-03	8.07348362e-05
1.96000000e+00	2.26616322e-03	8.00317753e-05
1.96500000e+00	2.28399657e-03	8.06515131e-05
1.97000000e+00	2.26146144e-03	7.89205000e-05
1.97500000e+00	2.24973593e-03	7.90207267e-05
1.98000000e+00	2.24270839e-03	7.91108834e-05
1.98500000e+00	2.22877426e-03	7.87983436e-05
1.99000000e+00	2.23572384e-03	7.80306914e-05
1.99500000e+00	2.21873330e-03	7.78423291e-05
2.00000000e+00	2.24428189e-03	7.92620840e-05
2.00500000e+00	2.24407998e-03	7.94714017e-05
2.01000000e+00	2.22356277e-03	8.63785297e-05
2.01500000e+00	2.20218782e-03	9.08747547e-05
2.02000000e+00	2.18791667e-03	9.62385873e-05
2.02500000e+00	2.13746713e-03	9.76847697e-05
2.03000000e+00	2.14109939e-03	1.03848784e-04
2.03500000e+00	2.13680739e-03	1.07923032e-04
2.04000000e+00	2.10830410e-03	1.11396746e-04
2.04500000e+00	2.12810615e-03	1.18297556e-04
2.05000000e+00	2.09432348e-03	1.22383155e-04
2.05500000e+00	2.13129177e-03	1.21773489e-04
2.06000000e+00	2.14285365e-03	1.06703377e-04
2.06500000e+00	2.12318233e-03	1.00961800e-04
2.07000000e+00	2.11352725e-03	9.52005446e-05
2.07500000e+00	2.11307965e-03	9.30166840e-05
2.08000000e+00	2.10103471e-03	9.23501387e-05
2.08500000e+00	2.11787794e-03	9.21362486e-05
2.09000000e+00	2.10988565e-03	8.90124645e-05
2.09500000e+00	2.10568093e-03	8.80163817e-05
2.10000000e+00	2.10102333e-03	8.72212564e-05
2.10500000e+00	2.08376798e-03	8.61868753e-05
2.11000000e+00	2.05857693e-03	8.20261250e-05
2.11500000e+00	2.05973236e-03	8.12541726e-05
2.12000000e+00	2.04559257e-03	8.02449521e-05
2.12500000e+00	2.03215174e-03	7.96548123e-05
2.13000000e+00	2.01737520e-03	7.57105470e-05
2.13500000e+00	2.01044600e-03	7.44832992e-05
2.14000000e+00	1.98028126e-03	7.28378230e-05
2.14500000e+00	1.97277633e-03	7.27065339e-05
2.15000000e+00	1.94598921e-03	6.94011878e-05
2.15500000e+00	1.95086367e-03	6.96653228e-05
2.16000000e+00	1.94701691e-03	6.92234757e-05
2.16500000e+00	1.92892922e-03	6.90686454e-05
2.17000000e+00	1.94029101e-03	6.78015576e-05
2.17500000e+00	1.91784797e-03	6.71280730e-05
2.18000000e+00	1.91775625e-03	6.73910606e-05
2.18500000e+00	1.90781971e-03	6.72976197e-05
2.19000000e+00	1.90540883e-03	6.70944428e-05
2.19500000e+00	1.89048525e-03	6.62164850e-05
2.20000000e+00	1.88094160e-03	6.60630455e-05
2.20500000e+00	1.87541124e-03	6.60964783e-05
2.21000000e+00	1.84673596e-03	6.53085713e-05
2.21500000e+00	1.83482866e-03	6.41889966e-05
2.22000000e+00	1.83444033e-03	6.41677645e-05
2.22500000e+00	1.82536503e-03	6.43880543e-05
2.23000000e+00	1.80417171e-03	6.39469120e-05
2.23500000e+00	1.79549311e-03	6.28236273e-05
2.24000000e+00	1.78555015e-03	6.25659877e-05
2.24500000e+00	1.74959433e-03	6.15843714e-05
2.25000000e+00	1.77562383e-03	6.30692810e-05
2.25500000e+00	1.75390311e-03	6.12904659e-05
2.26000000e+00	1.74790869e-03	6.12019190e-05
2.26500000e+00	1.73592559e-03	6.10438797e-05
2.27000000e+00	1.71769596e-03	6.12701718e-05
2.27500000e+00	1.70199901e-03	5.94114328e-05
2.28000000e+00	1.70253773e-03	5.94409968e-05
2.28500000e+00	1.69621224e-03	5.96744164e-05
2.29000000e+00	1.68524433e-03	5.95763031e-05
2.29500000e+00	1.65490382e-03	5.83560729e-05
2.30000000e+00	1.64073639e-03	5.72997875e-05
2.30500000e+00	1.63477695e-03	5.72545026e-05
2.31000000e+00	1.63941854e-03	5.77751192e-05
2.31500000e+00	1.61213231e-03	5.71989666e-05
2.32000000e+00	1.62632587e-03	5.65771682e-05
2.32500000e+00	1.61240849e-03	5.65374974e-05
2.33000000e+00	1.59490619e-03	5.60424719e-05
2.33500000e+00	1.58464676e-03	5.62516675e-05
2.34000000e+00	1.57029128e-03	5.47878520e-05
2.34500000e+00	1.55438697e-03	5.42839757e-05
2.35000000e+00	1.55757180e-03	5.45888219e-05
2.35500000e+00	1.56764559e-03	5.56885357e-05
2.36000000e+00	1.52790700e-03	5.35075916e-05
2.36500000e+00	1.53343083e-03	5.36477391e-05
2.37000000e+00	1.51710554e-03	5.30373953e-05
2.37500000e+00	1.50386081e-03	5.31036440e-05
2.38000000e+00	1.48206024e-03	5.26160659e-05
2.38500000e+00	1.48502681e-03	5.19629771e-05
2.39000000e+00	1.46820547e-03	5.14916589e-05
2.39500000e+00	1.47396303e-03	5.19538379e-05
2.40000000e+00	1.44766711e-03	5.17601096e-05
2.40500000e+00	1.46981374e-03	5.15265470e-05
2.41000000e+00	1.44920868e-03	5.10054614e-05
2.41500000e+00	1.43759467e-03	5.06002636e-05
2.42000000e+00	1.42333009e-03	5.07478148e-05
2.42500000e+00	1.41750716e-03	5.05095053e-05
2.43000000e+00	1.41912089e-03	5.00829064e-05
2.43500000e+00	1.39791934e-03	4.94805186e-05
2.44000000e+00	1.37962208e-03	4.89365293e-05
2.44500000e+00	1.38202784e-03	4.95791463e-05
2.45000000e+00	1.37590155e-03	4.85688855e-05
2.45500000e+00	1.37574392e-03	4.86809469e-05
2.46000000e+00	1.35645342e-03	4.82833804e-05
2.46500000e+00	1.33295129e-03	4.79337567e-05
2.47000000e+00	1.32561998e-03	4.72988310e-05
2.47500000e+00	1.32358411e-03	4.69045047e-05
2.48000000e+00	1.32414891e-03	4.72747746e-05
2.48500000e+00	1.31709985e-03	4.70236146e-05
2.49000000e+00	1.30570812e-03	4.73059214e-05
2.49500000e+00	1.29046452e-03	4.58638576e-05
2.50000000e+00	1.29633005e-03	4.60758749e-05
2.50500000e+00	1.29244842e-03	4.63365329e-05
2.51000000e+00	1.27639994e-03	4.59983229e-05
2.51500000e+00	1.26520399e-03	4.56887015e-05
2.52000000e+00	1.26342589e-03	4.52511976e-05
2.52500000e+00	1.25042461e-03	4.50422249e-05
2.53000000e+00	1.25586519e-03	4.56363493e-05
2.53500000e+00	1.25169145e-03	4.60054319e-05
2.54000000e+00	1.22615481e-03	4.43283282e-05
2.54500000e+00	1.22371033e-03	4.43763778e-05
2.55000000e+00	1.21326710e-03	4.42327036e-05
2.55500000e+00	1.23342937e-03	4.53542557e-05
2.56000000e+00	1.20224706e-03	4.44951473e-05
2.56500000e+00	1.19481944e-03	4.38409586e-05
2.57000000e+00	1.18578681e-03	4.36452240e-05
2.57500000e+00	1.16970591e-03	4.31778538e-05
2.58000000e+00	1.17838999e-03	4.42704650e-05
2.58500000e+00	1.17417605e-03	4.37802753e-05
2.59000000e+00	1.17969991e-03	4.37665225e-05
2.59500000e+00	1.15222503e-03	4.29152701e-05
2.60000000e+00	1.14947500e-03	4.31334914e-05
2.60500000e+00	1.14721672e-03	4.40379392e-05
2.61000000e+00	1.16546669e-03	5.09703873e-05
2.61500000e+00	1.15173708e-03	5.56281167e-05
2.62000000e+00	1.14119067e-03	6.06226491e-05
2.62500000e+00	1.12191138e-03	6.44856575e-05
2.63000000e+00	1.11790377e-03	7.11634664e-05
2.63500000e+00	1.12946597e-03	7.98125567e-05
2.64000000e+00	1.11306375e-03	8.66236566e-05
2.64500000e+00	1.09733477e-03	9.16502282e-05
2.65000000e+00	1.07604966e-03	9.47171713e-05
2.65500000e+00	1.06934682e-03	1.01174074e-04
2.66000000e+00	1.11597718e-03	1.12857703e-04
2.66500000e+00	1.09754358e-03	1.25512234e-04
2.67000000e+00	1.09622964e-03	1.34714776e-04
2.67500000e+00	1.11359773e-03	1.59060554e-04
2.68000000e+00	1.07046419e-03	1.78000366e-04
2.68500000e+00	1.08977890e-03	2.42975584e-04
2.69000000e+00	1.17436278e-03	4.27540096e-04
2.69500000e+00	0.00000000e+00	0.00000000e+00
2.70000000e+00	0.00000000e+00	0.00000000e+00
