% Filename : WDL5_p7_00025_00024.h5
% Date & Time : 30-Oct-2025 16:56:46
% X-ray Energy (keV) : 13.30001
% Exposure Time (s) : 0.500
% Photodiode Value : 140965.000
% I0 of Sample : 0
% I0 of Standard : 1
% 
% q(A^-1)   I(q)    I(q)_SE
8.40000000e-01	0.00000000e+00	0.00000000e+00
8.45000000e-01	2.76417551e-03	4.85076198e-04
8.50000000e-01	2.69948496e-03	2.50464535e-04
8.55000000e-01	2.63458979e-03	2.15736253e-04
8.60000000e-01	2.57553109e-03	1.82156558e-04
8.65000000e-01	2.65424121e-03	1.73300136e-04
8.70000000e-01	2.61506274e-03	1.62487453e-04
8.75000000e-01	2.62937975e-03	1.57246860e-04
8.80000000e-01	2.64266061e-03	1.52742487e-04
8.85000000e-01	2.64760156e-03	1.44849210e-04
8.90000000e-01	2.66860933e-03	1.42656773e-04
8.95000000e-01	2.68862317e-03	1.39809890e-04
9.00000000e-01	2.68467993e-03	1.38313512e-04
9.05000000e-01	2.67975985e-03	1.31963296e-04
9.10000000e-01	2.68715504e-03	1.29870185e-04
9.15000000e-01	2.67943815e-03	1.27483729e-04
9.20000000e-01	2.69903381e-03	1.28323261e-04
9.25000000e-01	2.73754576e-03	1.24504334e-04
9.30000000e-01	2.69341606e-03	1.21303739e-04
9.35000000e-01	2.73943523e-03	1.20817751e-04
9.40000000e-01	2.73617702e-03	1.21019669e-04
9.45000000e-01	2.73329820e-03	1.17895800e-04
9.50000000e-01	2.74759820e-03	1.16933591e-04
9.55000000e-01	2.72102475e-03	1.13709462e-04
9.60000000e-01	2.73616489e-03	1.14450908e-04
9.65000000e-01	2.75729337e-03	1.13389360e-04
9.70000000e-01	2.74772861e-03	1.11074682e-04
9.75000000e-01	2.75114440e-03	1.10119091e-04
9.80000000e-01	2.75559070e-03	1.09348751e-04
9.85000000e-01	2.75539382e-03	1.09336836e-04
9.90000000e-01	2.76997765e-03	1.06631304e-04
9.95000000e-01	2.76649333e-03	1.06000614e-04
1.00000000e+00	2.77378802e-03	1.05673846e-04
1.00500000e+00	2.77358406e-03	1.05741095e-04
1.01000000e+00	2.76635453e-03	1.03318992e-04
1.01500000e+00	2.76466700e-03	1.02306510e-04
1.02000000e+00	2.79053761e-03	1.03153232e-04
1.02500000e+00	2.75852278e-03	1.00623832e-04
1.03000000e+00	2.78760499e-03	1.01451156e-04
1.03500000e+00	2.75173075e-03	9.88145152e-05
1.04000000e+00	2.77103763e-03	9.88434952e-05
1.04500000e+00	2.76463212e-03	9.86319091e-05
1.05000000e+00	2.74604875e-03	9.73187712e-05
1.05500000e+00	2.74438396e-03	9.58395999e-05
1.06000000e+00	2.76668374e-03	9.62788823e-05
1.06500000e+00	2.72236521e-03	9.49721446e-05
1.07000000e+00	2.74927392e-03	9.57406527e-05
1.07500000e+00	2.77826904e-03	9.58916760e-05
1.08000000e+00	2.78307122e-03	9.56395728e-05
1.08500000e+00	2.76470051e-03	9.50103468e-05
1.09000000e+00	2.78419024e-03	9.60938436e-05
1.09500000e+00	2.78411610e-03	9.42408755e-05
1.10000000e+00	2.79140086e-03	9.51679548e-05
1.10500000e+00	2.79764400e-03	9.56334872e-05
1.11000000e+00	2.78310458e-03	9.52308288e-05
1.11500000e+00	2.81832579e-03	9.57938756e-05
1.12000000e+00	2.82449189e-03	9.63382989e-05
1.12500000e+00	2.85128640e-03	9.70031793e-05
1.13000000e+00	2.85122331e-03	9.82137773e-05
1.13500000e+00	2.84481196e-03	9.67218253e-05
1.14000000e+00	2.85941286e-03	9.71093451e-05
1.14500000e+00	2.86827349e-03	9.80859286e-05
1.15000000e+00	2.86652463e-03	9.86776413e-05
1.15500000e+00	2.86949602e-03	9.76557344e-05
1.16000000e+00	2.87830933e-03	9.83092467e-05
1.16500000e+00	2.88765273e-03	9.85275120e-05
1.17000000e+00	2.88552062e-03	9.96786018e-05
1.17500000e+00	2.89600885e-03	9.85413181e-05
1.18000000e+00	2.91274181e-03	9.96113443e-05
1.18500000e+00	2.89699798e-03	9.89550602e-05
1.19000000e+00	2.89293394e-03	9.98737580e-05
1.19500000e+00	2.92755887e-03	9.98070213e-05
1.20000000e+00	2.89618125e-03	9.93465077e-05
1.20500000e+00	2.91008398e-03	9.96200468e-05
1.21000000e+00	2.90973299e-03	1.00860457e-04
1.21500000e+00	2.94773620e-03	1.00522790e-04
1.22000000e+00	2.93154129e-03	1.00205161e-04
1.22500000e+00	2.94024530e-03	1.00864850e-04
1.23000000e+00	2.94653968e-03	1.01876751e-04
1.23500000e+00	2.93584905e-03	1.00849125e-04
1.24000000e+00	2.94357705e-03	1.00528084e-04
1.24500000e+00	2.96412442e-03	1.02101199e-04
1.25000000e+00	2.94200661e-03	1.01880315e-04
1.25500000e+00	2.93733199e-03	1.00501310e-04
1.26000000e+00	2.95287298e-03	1.01638178e-04
1.26500000e+00	2.98973547e-03	1.02586545e-04
1.27000000e+00	2.95951062e-03	1.02936176e-04
1.27500000e+00	2.96388515e-03	1.02086187e-04
1.28000000e+00	2.95846897e-03	1.01233087e-04
1.28500000e+00	2.94218502e-03	1.01265252e-04
1.29000000e+00	2.97984654e-03	1.03484534e-04
1.29500000e+00	2.96541125e-03	1.01895522e-04
1.30000000e+00	2.94338778e-03	1.01007423e-04
1.30500000e+00	2.95142205e-03	1.01753274e-04
1.31000000e+00	2.96287274e-03	1.03285603e-04
1.31500000e+00	2.98833236e-03	1.02825241e-04
1.32000000e+00	2.97634756e-03	1.02336733e-04
1.32500000e+00	2.98633128e-03	1.03020319e-04
1.33000000e+00	2.95964157e-03	1.03324804e-04
1.33500000e+00	2.95628255e-03	1.01782221e-04
1.34000000e+00	2.98311859e-03	1.02772538e-04
1.34500000e+00	2.97163674e-03	1.02795370e-04
1.35000000e+00	2.96719995e-03	1.03643691e-04
1.35500000e+00	2.94574376e-03	1.01435689e-04
1.36000000e+00	2.96399525e-03	1.01914723e-04
1.36500000e+00	2.95916077e-03	1.02105329e-04
1.37000000e+00	2.95438471e-03	1.03403901e-04
1.37500000e+00	2.96358432e-03	1.02202550e-04
1.38000000e+00	2.96664954e-03	1.02492695e-04
1.38500000e+00	2.94551995e-03	1.02280122e-04
1.39000000e+00	2.94609604e-03	1.02989138e-04
1.39500000e+00	2.96360348e-03	1.02129265e-04
1.40000000e+00	2.98476606e-03	1.05957434e-04
1.40500000e+00	2.92597718e-03	1.11802453e-04
1.41000000e+00	2.93656412e-03	1.17481546e-04
1.41500000e+00	2.90890929e-03	1.20580541e-04
1.42000000e+00	2.88770634e-03	1.24539988e-04
1.42500000e+00	2.88643217e-03	1.28077904e-04
1.43000000e+00	2.88244761e-03	1.32841184e-04
1.43500000e+00	2.84447773e-03	1.35129970e-04
1.44000000e+00	2.87661338e-03	1.41880448e-04
1.44500000e+00	2.83630903e-03	1.43467741e-04
1.45000000e+00	2.91092430e-03	1.42612587e-04
1.45500000e+00	2.94133149e-03	1.29332079e-04
1.46000000e+00	2.93412498e-03	1.25864694e-04
1.46500000e+00	2.95199783e-03	1.24505628e-04
1.47000000e+00	2.92689950e-03	1.23226049e-04
1.47500000e+00	2.91925037e-03	1.19287901e-04
1.48000000e+00	2.94092570e-03	1.18913227e-04
1.48500000e+00	2.91927054e-03	1.18075286e-04
1.49000000e+00	2.89987322e-03	1.17554179e-04
1.49500000e+00	2.92259089e-03	1.15896996e-04
1.50000000e+00	2.93695136e-03	1.16081257e-04
1.50500000e+00	2.91518645e-03	1.15823167e-04
1.51000000e+00	2.92573840e-03	1.16566722e-04
1.51500000e+00	2.92072393e-03	1.14424495e-04
1.52000000e+00	2.94571619e-03	1.14903424e-04
1.52500000e+00	2.96248578e-03	1.15578057e-04
1.53000000e+00	2.94153742e-03	1.15446341e-04
1.53500000e+00	2.92450294e-03	1.11425454e-04
1.54000000e+00	2.93334755e-03	1.11626219e-04
1.54500000e+00	2.92605764e-03	1.11142219e-04
1.55000000e+00	2.87952595e-03	1.09032213e-04
1.55500000e+00	2.88316278e-03	1.06731897e-04
1.56000000e+00	2.88334105e-03	1.06923777e-04
1.56500000e+00	2.85225530e-03	1.05246708e-04
1.57000000e+00	2.85636469e-03	1.04659391e-04
1.57500000e+00	2.83355232e-03	1.01937831e-04
1.58000000e+00	2.81827454e-03	1.01281150e-04
1.58500000e+00	2.81892880e-03	1.01305527e-04
1.59000000e+00	2.81968115e-03	1.01229881e-04
1.59500000e+00	2.79179577e-03	9.84653254e-05
1.60000000e+00	2.78480470e-03	9.81560119e-05
1.60500000e+00	2.77847240e-03	9.78326414e-05
1.61000000e+00	2.77175038e-03	9.72882664e-05
1.61500000e+00	2.79307101e-03	9.70861759e-05
1.62000000e+00	2.78359322e-03	9.72086845e-05
1.62500000e+00	2.75938524e-03	9.74725641e-05
1.63000000e+00	2.75459948e-03	9.62430192e-05
1.63500000e+00	2.76384896e-03	9.65334998e-05
1.64000000e+00	2.73722672e-03	9.57181327e-05
1.64500000e+00	2.75302897e-03	9.72998589e-05
1.65000000e+00	2.74827162e-03	9.60929540e-05
1.65500000e+00	2.72966726e-03	9.52776822e-05
1.66000000e+00	2.73057811e-03	9.54943162e-05
1.66500000e+00	2.71888472e-03	9.66693024e-05
1.67000000e+00	2.71529043e-03	9.44918537e-05
1.67500000e+00	2.69848876e-03	9.41879604e-05
1.68000000e+00	2.68414425e-03	9.39299219e-05
1.68500000e+00	2.68097943e-03	9.54316433e-05
1.69000000e+00	2.69150349e-03	9.40005348e-05
1.69500000e+00	2.67220926e-03	9.30709316e-05
1.70000000e+00	2.67134532e-03	9.41475918e-05
1.70500000e+00	2.67122212e-03	9.45601926e-05
1.71000000e+00	2.66333384e-03	9.31007244e-05
1.71500000e+00	2.64524936e-03	9.23577348e-05
1.72000000e+00	2.65267544e-03	9.33451042e-05
1.72500000e+00	2.63495346e-03	9.34050894e-05
1.73000000e+00	2.64646015e-03	9.24702466e-05
1.73500000e+00	2.62485257e-03	9.20084287e-05
1.74000000e+00	2.61729489e-03	9.19371688e-05
1.74500000e+00	2.62749464e-03	9.34163845e-05
1.75000000e+00	2.61054147e-03	9.09381107e-05
1.75500000e+00	2.60660484e-03	9.14440529e-05
1.76000000e+00	2.57544500e-03	9.03066772e-05
1.76500000e+00	2.58772470e-03	9.19254921e-05
1.77000000e+00	2.57075961e-03	8.97568383e-05
1.77500000e+00	2.57556167e-03	9.02302039e-05
1.78000000e+00	2.56437143e-03	9.01189372e-05
1.78500000e+00	2.57552916e-03	9.14951072e-05
1.79000000e+00	2.55237809e-03	8.91572599e-05
1.79500000e+00	2.55442735e-03	8.94759275e-05
1.80000000e+00	2.54548345e-03	8.96642356e-05
1.80500000e+00	2.53063173e-03	8.97319880e-05
1.81000000e+00	2.51935941e-03	8.79661112e-05
1.81500000e+00	2.50297753e-03	8.74945377e-05
1.82000000e+00	2.50041600e-03	8.79617403e-05
1.82500000e+00	2.50832314e-03	8.87754715e-05
1.83000000e+00	2.50014051e-03	8.73953924e-05
1.83500000e+00	2.48101116e-03	8.68795382e-05
1.84000000e+00	2.46963342e-03	8.70047881e-05
1.84500000e+00	2.47886677e-03	8.77840709e-05
1.85000000e+00	2.46083274e-03	8.61320337e-05
1.85500000e+00	2.46169884e-03	8.62366571e-05
1.86000000e+00	2.44416574e-03	8.61956297e-05
1.86500000e+00	2.42640869e-03	8.57348556e-05
1.87000000e+00	2.42202340e-03	8.46841293e-05
1.87500000e+00	2.43481092e-03	8.53668577e-05
1.88000000e+00	2.44297835e-03	8.61086295e-05
1.88500000e+00	2.40287016e-03	8.51435210e-05
1.89000000e+00	2.41522510e-03	8.44274006e-05
1.89500000e+00	2.39511701e-03	8.42138440e-05
1.90000000e+00	2.37237062e-03	8.37047149e-05
1.90500000e+00	2.37703610e-03	8.38168079e-05
1.91000000e+00	2.38506332e-03	8.35229962e-05
1.91500000e+00	2.35801369e-03	8.27314281e-05
1.92000000e+00	2.35811026e-03	8.30750333e-05
1.92500000e+00	2.33733831e-03	8.24331162e-05
1.93000000e+00	2.32962403e-03	8.14877269e-05
1.93500000e+00	2.33919613e-03	8.20757945e-05
1.94000000e+00	2.30677281e-03	8.15508120e-05
1.94500000e+00	2.31360732e-03	8.15845768e-05
1.95000000e+00	2.31670866e-03	8.09173944e-05
1.95500000e+00	2.29734676e-03	8.06326393e-05
1.96000000e+00	2.29649421e-03	8.10682274e-05
1.96500000e+00	2.27868247e-03	8.04661826e-05
1.97000000e+00	2.28223320e-03	7.96108486e-05
1.97500000e+00	2.26272495e-03	7.94789444e-05
1.98000000e+00	2.24804202e-03	7.93003218e-05
1.98500000e+00	2.24541234e-03	7.94127493e-05
1.99000000e+00	2.23419003e-03	7.79614856e-05
1.99500000e+00	2.23835630e-03	7.85412774e-05
2.00000000e+00	2.23516792e-03	7.89746316e-05
2.00500000e+00	2.25431097e-03	7.97426106e-05
2.01000000e+00	2.22203471e-03	8.62745179e-05
2.01500000e+00	2.18350524e-03	9.01241039e-05
2.02000000e+00	2.18099096e-03	9.58804042e-05
2.02500000e+00	2.16365472e-03	9.88740755e-05
2.03000000e+00	2.17654265e-03	1.05320349e-04
2.03500000e+00	2.11998260e-03	1.07048658e-04
2.04000000e+00	2.12830133e-03	1.12509048e-04
2.04500000e+00	2.13313491e-03	1.18614480e-04
2.05000000e+00	2.12620285e-03	1.24098557e-04
2.05500000e+00	2.14333384e-03	1.22620983e-04
2.06000000e+00	2.13982870e-03	1.06480098e-04
2.06500000e+00	2.13630342e-03	1.01596557e-04
2.07000000e+00	2.11887141e-03	9.54179420e-05
2.07500000e+00	2.09691317e-03	9.23199428e-05
2.08000000e+00	2.10012146e-03	9.22783828e-05
2.08500000e+00	2.10355465e-03	9.15454744e-05
2.09000000e+00	2.11088439e-03	8.92795087e-05
2.09500000e+00	2.07410990e-03	8.67244211e-05
2.10000000e+00	2.07473207e-03	8.61105050e-05
2.10500000e+00	2.08463273e-03	8.62407685e-05
2.11000000e+00	2.04990134e-03	8.17163713e-05
2.11500000e+00	2.07117313e-03	8.17540871e-05
2.12000000e+00	2.04547856e-03	8.03229506e-05
2.12500000e+00	2.06679122e-03	8.08681426e-05
2.13000000e+00	2.00035222e-03	7.51175241e-05
2.13500000e+00	2.00793313e-03	7.44751553e-05
2.14000000e+00	1.97769587e-03	7.27937910e-05
2.14500000e+00	1.97628407e-03	7.28676621e-05
2.15000000e+00	1.97258910e-03	7.02841539e-05
2.15500000e+00	1.95521151e-03	6.98435399e-05
2.16000000e+00	1.95960830e-03	6.95766229e-05
2.16500000e+00	1.93588201e-03	6.92208339e-05
2.17000000e+00	1.93239539e-03	6.74768390e-05
2.17500000e+00	1.93307478e-03	6.76938070e-05
2.18000000e+00	1.91081766e-03	6.71552360e-05
2.18500000e+00	1.90946243e-03	6.74176305e-05
2.19000000e+00	1.90088690e-03	6.69037544e-05
2.19500000e+00	1.89948655e-03	6.65552939e-05
2.20000000e+00	1.88077864e-03	6.59801375e-05
2.20500000e+00	1.88507331e-03	6.63401103e-05
2.21000000e+00	1.86123507e-03	6.58459624e-05
2.21500000e+00	1.85821234e-03	6.50427385e-05
2.22000000e+00	1.84725324e-03	6.46538876e-05
2.22500000e+00	1.82743888e-03	6.44244307e-05
2.23000000e+00	1.81444986e-03	6.43239476e-05
2.23500000e+00	1.80941761e-03	6.33442079e-05
2.24000000e+00	1.80626668e-03	6.31693600e-05
2.24500000e+00	1.77566360e-03	6.25505990e-05
2.25000000e+00	1.77316190e-03	6.29553732e-05
2.25500000e+00	1.77416411e-03	6.19090179e-05
2.26000000e+00	1.74846082e-03	6.12281213e-05
2.26500000e+00	1.75296224e-03	6.15595109e-05
2.27000000e+00	1.74457450e-03	6.22376415e-05
2.27500000e+00	1.71444803e-03	5.99357280e-05
2.28000000e+00	1.70530131e-03	5.95831886e-05
2.28500000e+00	1.72035081e-03	6.04420934e-05
2.29000000e+00	1.70847096e-03	6.03913997e-05
2.29500000e+00	1.67824389e-03	5.91540717e-05
2.30000000e+00	1.67963225e-03	5.86243912e-05
2.30500000e+00	1.65575074e-03	5.79586625e-05
2.31000000e+00	1.66507245e-03	5.86370635e-05
2.31500000e+00	1.65315068e-03	5.87202261e-05
2.32000000e+00	1.65292498e-03	5.74207682e-05
2.32500000e+00	1.63934514e-03	5.74489891e-05
2.33000000e+00	1.62199203e-03	5.70389904e-05
2.33500000e+00	1.60791459e-03	5.70693667e-05
2.34000000e+00	1.60538303e-03	5.60293070e-05
2.34500000e+00	1.59491175e-03	5.56915584e-05
2.35000000e+00	1.57875926e-03	5.54053131e-05
2.35500000e+00	1.57721735e-03	5.60373417e-05
2.36000000e+00	1.57802934e-03	5.52254596e-05
2.36500000e+00	1.55270276e-03	5.43542836e-05
2.37000000e+00	1.54799357e-03	5.42204245e-05
2.37500000e+00	1.53954473e-03	5.43288181e-05
2.38000000e+00	1.53213534e-03	5.44186707e-05
2.38500000e+00	1.53948501e-03	5.38504316e-05
2.39000000e+00	1.50749368e-03	5.28162511e-05
2.39500000e+00	1.50843452e-03	5.33038486e-05
2.40000000e+00	1.50477081e-03	5.38568479e-05
2.40500000e+00	1.48624189e-03	5.21145999e-05
2.41000000e+00	1.48355248e-03	5.22688010e-05
2.41500000e+00	1.48559269e-03	5.22600107e-05
2.42000000e+00	1.48512620e-03	5.29747651e-05
2.42500000e+00	1.45575466e-03	5.18137851e-05
2.43000000e+00	1.45846455e-03	5.13865864e-05
2.43500000e+00	1.42742828e-03	5.05155764e-05
2.44000000e+00	1.41523533e-03	5.01523901e-05
2.44500000e+00	1.41618107e-03	5.08987970e-05
2.45000000e+00	1.40643504e-03	4.96296617e-05
2.45500000e+00	1.40143714e-03	4.96629521e-05
2.46000000e+00	1.38287260e-03	4.92077364e-05
2.46500000e+00	1.38575379e-03	4.98177691e-05
2.47000000e+00	1.37643255e-03	4.90265420e-05
2.47500000e+00	1.36946146e-03	4.85308305e-05
2.48000000e+00	1.35287920e-03	4.83738489e-05
2.48500000e+00	1.35203732e-03	4.83100487e-05
2.49000000e+00	1.34082727e-03	4.85607084e-05
2.49500000e+00	1.33956132e-03	4.75667634e-05
2.50000000e+00	1.33281287e-03	4.74663443e-05
2.50500000e+00	1.31525710e-03	4.71198868e-05
2.51000000e+00	1.31178795e-03	4.72845586e-05
2.51500000e+00	1.29121951e-03	4.66485477e-05
2.52000000e+00	1.27518243e-03	4.56428958e-05
2.52500000e+00	1.28986321e-03	4.64261658e-05
2.53000000e+00	1.27812626e-03	4.64382404e-05
2.53500000e+00	1.27891172e-03	4.70221730e-05
2.54000000e+00	1.26306213e-03	4.56789355e-05
2.54500000e+00	1.26177399e-03	4.57873482e-05
2.55000000e+00	1.25338357e-03	4.56595210e-05
2.55500000e+00	1.23272086e-03	4.52902367e-05
2.56000000e+00	1.24344027e-03	4.60066031e-05
2.56500000e+00	1.22979385e-03	4.50671671e-05
2.57000000e+00	1.22026549e-03	4.49800588e-05
2.57500000e+00	1.22937699e-03	4.54119039e-05
2.58000000e+00	1.21486003e-03	4.55844406e-05
2.58500000e+00	1.20399063e-03	4.48928179e-05
2.59000000e+00	1.20682450e-03	4.48893671e-05
2.59500000e+00	1.18290289e-03	4.40137679e-05
2.60000000e+00	1.17854730e-03	4.42042489e-05
2.60500000e+00	1.19773115e-03	4.59432467e-05
2.61000000e+00	1.18708015e-03	5.19131492e-05
2.61500000e+00	1.16729893e-03	5.65045471e-05
2.62000000e+00	1.16170908e-03	6.18337298e-05
2.62500000e+00	1.14947788e-03	6.60027810e-05
2.63000000e+00	1.15302926e-03	7.31369727e-05
2.63500000e+00	1.12703153e-03	7.95520764e-05
2.64000000e+00	1.15024564e-03	8.92631014e-05
2.64500000e+00	1.11550990e-03	9.26435568e-05
2.65000000e+00	1.12623139e-03	9.89624009e-05
2.65500000e+00	1.15736691e-03	1.09177041e-04
2.66000000e+00	1.09051365e-03	1.10959879e-04
2.66500000e+00	1.13855787e-03	1.29324990e-04
2.67000000e+00	1.14007489e-03	1.41217649e-04
2.67500000e+00	1.11021959e-03	1.59493031e-04
2.68000000e+00	1.08734010e-03	1.82740952e-04
2.68500000e+00	1.12802041e-03	2.49617106e-04
2.69000000e+00	1.28126901e-03	4.76204139e-04
2.69500000e+00	0.00000000e+00	0.00000000e+00
2.70000000e+00	0.00000000e+00	0.00000000e+00
