% Filename : WDL5_p7_00025_00048.h5
% Date & Time : 30-Oct-2025 16:58:13
% X-ray Energy (keV) : 13.30001
% Exposure Time (s) : 0.500
% Photodiode Value : 143419.000
% I0 of Sample : 0
% I0 of Standard : 1
% 
% q(A^-1)   I(q)    I(q)_SE
8.40000000e-01	0.00000000e+00	0.00000000e+00
8.45000000e-01	2.89047539e-03	5.06105015e-04
8.50000000e-01	2.74107538e-03	2.54387839e-04
8.55000000e-01	2.66950513e-03	2.18030088e-04
8.60000000e-01	2.70478751e-03	1.91153402e-04
8.65000000e-01	2.71599136e-03	1.76945152e-04
8.70000000e-01	2.68062363e-03	1.66507994e-04
8.75000000e-01	2.70848331e-03	1.62155806e-04
8.80000000e-01	2.65616535e-03	1.53525633e-04
8.85000000e-01	2.72186553e-03	1.48718682e-04
8.90000000e-01	2.73345064e-03	1.46164793e-04
8.95000000e-01	2.74328182e-03	1.42628858e-04
9.00000000e-01	2.74239783e-03	1.41258522e-04
9.05000000e-01	2.74267771e-03	1.34945601e-04
9.10000000e-01	2.75591642e-03	1.33024668e-04
9.15000000e-01	2.74309778e-03	1.30514020e-04
9.20000000e-01	2.75937813e-03	1.31239669e-04
9.25000000e-01	2.80123821e-03	1.27158384e-04
9.30000000e-01	2.76954043e-03	1.24522813e-04
9.35000000e-01	2.78537216e-03	1.22933822e-04
9.40000000e-01	2.80397204e-03	1.23989870e-04
9.45000000e-01	2.80797328e-03	1.21029270e-04
9.50000000e-01	2.80491193e-03	1.19185904e-04
9.55000000e-01	2.82023575e-03	1.17806518e-04
9.60000000e-01	2.81512593e-03	1.17693789e-04
9.65000000e-01	2.81395742e-03	1.15631317e-04
9.70000000e-01	2.83326291e-03	1.14496114e-04
9.75000000e-01	2.82174038e-03	1.12718279e-04
9.80000000e-01	2.83187428e-03	1.12298891e-04
9.85000000e-01	2.84616631e-03	1.12934961e-04
9.90000000e-01	2.84513281e-03	1.09520885e-04
9.95000000e-01	2.83419428e-03	1.08538287e-04
1.00000000e+00	2.85966922e-03	1.08983803e-04
1.00500000e+00	2.81857621e-03	1.07439084e-04
1.01000000e+00	2.84893757e-03	1.06216309e-04
1.01500000e+00	2.86843799e-03	1.06012602e-04
1.02000000e+00	2.85573483e-03	1.05394945e-04
1.02500000e+00	2.84864229e-03	1.03884786e-04
1.03000000e+00	2.82248280e-03	1.02609298e-04
1.03500000e+00	2.81443586e-03	1.00911740e-04
1.04000000e+00	2.82886582e-03	1.00739214e-04
1.04500000e+00	2.83332710e-03	1.01049027e-04
1.05000000e+00	2.82747146e-03	1.00150735e-04
1.05500000e+00	2.80357704e-03	9.77386716e-05
1.06000000e+00	2.81916336e-03	9.80395599e-05
1.06500000e+00	2.84732083e-03	9.91026451e-05
1.07000000e+00	2.82446380e-03	9.81395481e-05
1.07500000e+00	2.84544899e-03	9.81902894e-05
1.08000000e+00	2.84627441e-03	9.76156288e-05
1.08500000e+00	2.84887466e-03	9.78436014e-05
1.09000000e+00	2.84727119e-03	9.83187902e-05
1.09500000e+00	2.86475279e-03	9.69840022e-05
1.10000000e+00	2.87663683e-03	9.79658761e-05
1.10500000e+00	2.86772136e-03	9.79335419e-05
1.11000000e+00	2.86953608e-03	9.81448453e-05
1.11500000e+00	2.88171931e-03	9.79051469e-05
1.12000000e+00	2.92243532e-03	9.96133680e-05
1.12500000e+00	2.90598202e-03	9.88723598e-05
1.13000000e+00	2.92900874e-03	1.00827407e-04
1.13500000e+00	2.92768500e-03	9.95086209e-05
1.14000000e+00	2.94799593e-03	1.00019913e-04
1.14500000e+00	2.95555439e-03	1.01122566e-04
1.15000000e+00	2.93944333e-03	1.01035273e-04
1.15500000e+00	2.98048880e-03	1.01354240e-04
1.16000000e+00	2.97317161e-03	1.01476885e-04
1.16500000e+00	2.95156169e-03	1.00643352e-04
1.17000000e+00	2.97989504e-03	1.02875676e-04
1.17500000e+00	2.98033653e-03	1.01422502e-04
1.18000000e+00	2.98643059e-03	1.02052548e-04
1.18500000e+00	3.00592359e-03	1.02607595e-04
1.19000000e+00	3.02095992e-03	1.04226571e-04
1.19500000e+00	3.00492650e-03	1.02281421e-04
1.20000000e+00	3.00075672e-03	1.02805643e-04
1.20500000e+00	3.02390488e-03	1.03455552e-04
1.21000000e+00	3.01804588e-03	1.04520952e-04
1.21500000e+00	3.04002712e-03	1.03681370e-04
1.22000000e+00	3.02930536e-03	1.03327874e-04
1.22500000e+00	3.04616039e-03	1.04404932e-04
1.23000000e+00	3.03907376e-03	1.04945313e-04
1.23500000e+00	3.04391184e-03	1.04529708e-04
1.24000000e+00	3.06000072e-03	1.04503097e-04
1.24500000e+00	3.03336320e-03	1.04287708e-04
1.25000000e+00	3.05134673e-03	1.05561033e-04
1.25500000e+00	3.07353422e-03	1.05135199e-04
1.26000000e+00	3.05616818e-03	1.05110241e-04
1.26500000e+00	3.06169667e-03	1.04937317e-04
1.27000000e+00	3.08313149e-03	1.07202737e-04
1.27500000e+00	3.08268176e-03	1.06085568e-04
1.28000000e+00	3.07607083e-03	1.05227084e-04
1.28500000e+00	3.06905049e-03	1.05633397e-04
1.29000000e+00	3.05804390e-03	1.06133316e-04
1.29500000e+00	3.06245951e-03	1.05197544e-04
1.30000000e+00	3.07270058e-03	1.05305790e-04
1.30500000e+00	3.06139125e-03	1.05443134e-04
1.31000000e+00	3.09289974e-03	1.07794326e-04
1.31500000e+00	3.09295947e-03	1.06392643e-04
1.32000000e+00	3.08488292e-03	1.06024241e-04
1.32500000e+00	3.08797713e-03	1.06476763e-04
1.33000000e+00	3.05381391e-03	1.06506874e-04
1.33500000e+00	3.08791535e-03	1.06261214e-04
1.34000000e+00	3.08166468e-03	1.06082734e-04
1.34500000e+00	3.08748253e-03	1.06787901e-04
1.35000000e+00	3.07360875e-03	1.07170793e-04
1.35500000e+00	3.08197312e-03	1.06062477e-04
1.36000000e+00	3.07050229e-03	1.05589470e-04
1.36500000e+00	3.08514624e-03	1.06367373e-04
1.37000000e+00	3.07434067e-03	1.07632307e-04
1.37500000e+00	3.07558528e-03	1.06006127e-04
1.38000000e+00	3.08233083e-03	1.06453034e-04
1.38500000e+00	3.09241585e-03	1.07335587e-04
1.39000000e+00	3.08155949e-03	1.07710913e-04
1.39500000e+00	3.08083382e-03	1.06035773e-04
1.40000000e+00	3.12205775e-03	1.10780514e-04
1.40500000e+00	3.07124861e-03	1.17239195e-04
1.41000000e+00	3.04714884e-03	1.21817251e-04
1.41500000e+00	3.04780075e-03	1.26198431e-04
1.42000000e+00	3.01700836e-03	1.30051674e-04
1.42500000e+00	3.01417617e-03	1.33823868e-04
1.43000000e+00	2.99555271e-03	1.38001520e-04
1.43500000e+00	2.98603958e-03	1.41805466e-04
1.44000000e+00	2.95970046e-03	1.45941010e-04
1.44500000e+00	2.93699851e-03	1.48664310e-04
1.45000000e+00	3.05414029e-03	1.49436584e-04
1.45500000e+00	3.05696672e-03	1.34471763e-04
1.46000000e+00	3.05294298e-03	1.31052922e-04
1.46500000e+00	3.06052779e-03	1.28950104e-04
1.47000000e+00	3.05266195e-03	1.28479805e-04
1.47500000e+00	3.04609097e-03	1.24397397e-04
1.48000000e+00	3.01925038e-03	1.21938640e-04
1.48500000e+00	3.04969057e-03	1.23283437e-04
1.49000000e+00	3.03289654e-03	1.22919883e-04
1.49500000e+00	3.06915947e-03	1.21628251e-04
1.50000000e+00	3.04405116e-03	1.20170711e-04
1.50500000e+00	3.05283629e-03	1.21209318e-04
1.51000000e+00	3.05431959e-03	1.21544872e-04
1.51500000e+00	3.07160688e-03	1.20236424e-04
1.52000000e+00	3.04520180e-03	1.18823118e-04
1.52500000e+00	3.07861581e-03	1.19961933e-04
1.53000000e+00	3.07440481e-03	1.20561907e-04
1.53500000e+00	3.03237335e-03	1.15532278e-04
1.54000000e+00	3.02990241e-03	1.15264117e-04
1.54500000e+00	3.03134470e-03	1.15062178e-04
1.55000000e+00	3.03245113e-03	1.14764985e-04
1.55500000e+00	3.04178904e-03	1.12508886e-04
1.56000000e+00	2.99211729e-03	1.10990020e-04
1.56500000e+00	2.96662327e-03	1.09426760e-04
1.57000000e+00	2.97414006e-03	1.08894141e-04
1.57500000e+00	2.94447100e-03	1.05832233e-04
1.58000000e+00	2.95204939e-03	1.05900366e-04
1.58500000e+00	2.91290532e-03	1.04599928e-04
1.59000000e+00	2.96720482e-03	1.06565591e-04
1.59500000e+00	2.93709616e-03	1.03471693e-04
1.60000000e+00	2.91400603e-03	1.02567973e-04
1.60500000e+00	2.90348076e-03	1.02257334e-04
1.61000000e+00	2.91003173e-03	1.02090152e-04
1.61500000e+00	2.89714214e-03	1.00720700e-04
1.62000000e+00	2.89531506e-03	1.01036363e-04
1.62500000e+00	2.88984432e-03	1.01984302e-04
1.63000000e+00	2.87669812e-03	1.00414801e-04
1.63500000e+00	2.86535557e-03	1.00084617e-04
1.64000000e+00	2.85914813e-03	9.99572684e-05
1.64500000e+00	2.87246489e-03	1.01519472e-04
1.65000000e+00	2.85214038e-03	9.96690288e-05
1.65500000e+00	2.87240399e-03	1.00269109e-04
1.66000000e+00	2.84631488e-03	9.94009036e-05
1.66500000e+00	2.83957713e-03	1.00899958e-04
1.67000000e+00	2.85235298e-03	9.92210731e-05
1.67500000e+00	2.83670274e-03	9.89499315e-05
1.68000000e+00	2.80268394e-03	9.80444654e-05
1.68500000e+00	2.80190966e-03	9.96799645e-05
1.69000000e+00	2.81447275e-03	9.82367330e-05
1.69500000e+00	2.79663554e-03	9.73481708e-05
1.70000000e+00	2.78580861e-03	9.81946776e-05
1.70500000e+00	2.77901569e-03	9.82639884e-05
1.71000000e+00	2.79815885e-03	9.77730068e-05
1.71500000e+00	2.76132150e-03	9.63580119e-05
1.72000000e+00	2.75305063e-03	9.68302658e-05
1.72500000e+00	2.74826450e-03	9.73596307e-05
1.73000000e+00	2.74238978e-03	9.57592274e-05
1.73500000e+00	2.74872993e-03	9.63235193e-05
1.74000000e+00	2.73901237e-03	9.61954313e-05
1.74500000e+00	2.75407920e-03	9.78751469e-05
1.75000000e+00	2.70383602e-03	9.41935592e-05
1.75500000e+00	2.73258422e-03	9.58054565e-05
1.76000000e+00	2.71474102e-03	9.51239486e-05
1.76500000e+00	2.69556518e-03	9.57297265e-05
1.77000000e+00	2.70376843e-03	9.44129401e-05
1.77500000e+00	2.69163744e-03	9.42609218e-05
1.78000000e+00	2.68332486e-03	9.42279794e-05
1.78500000e+00	2.67324883e-03	9.48603346e-05
1.79000000e+00	2.67274602e-03	9.32742054e-05
1.79500000e+00	2.66937528e-03	9.33855173e-05
1.80000000e+00	2.66182016e-03	9.37452904e-05
1.80500000e+00	2.65166771e-03	9.39431269e-05
1.81000000e+00	2.68024835e-03	9.35778767e-05
1.81500000e+00	2.64296154e-03	9.23952866e-05
1.82000000e+00	2.64060511e-03	9.28447826e-05
1.82500000e+00	2.64636441e-03	9.36854495e-05
1.83000000e+00	2.61200531e-03	9.12463704e-05
1.83500000e+00	2.61092874e-03	9.14349747e-05
1.84000000e+00	2.59840399e-03	9.14870127e-05
1.84500000e+00	2.59830273e-03	9.19630289e-05
1.85000000e+00	2.57080961e-03	8.99647679e-05
1.85500000e+00	2.59380720e-03	9.08123729e-05
1.86000000e+00	2.57521353e-03	9.08145359e-05
1.86500000e+00	2.57365494e-03	9.09130555e-05
1.87000000e+00	2.57667772e-03	9.00106689e-05
1.87500000e+00	2.55247236e-03	8.94774861e-05
1.88000000e+00	2.55161688e-03	8.98046763e-05
1.88500000e+00	2.53361998e-03	8.97067957e-05
1.89000000e+00	2.52169324e-03	8.81356959e-05
1.89500000e+00	2.52772591e-03	8.87470671e-05
1.90000000e+00	2.50042250e-03	8.81214899e-05
1.90500000e+00	2.50661829e-03	8.84108280e-05
1.91000000e+00	2.49203439e-03	8.72615191e-05
1.91500000e+00	2.48725407e-03	8.71115221e-05
1.92000000e+00	2.46812345e-03	8.69219402e-05
1.92500000e+00	2.44554107e-03	8.62630485e-05
1.93000000e+00	2.44009319e-03	8.52948242e-05
1.93500000e+00	2.47045586e-03	8.65921685e-05
1.94000000e+00	2.43944895e-03	8.62397318e-05
1.94500000e+00	2.43800234e-03	8.59427307e-05
1.95000000e+00	2.43516093e-03	8.50193180e-05
1.95500000e+00	2.41390291e-03	8.46479141e-05
1.96000000e+00	2.41337870e-03	8.51011054e-05
1.96500000e+00	2.42200310e-03	8.54901484e-05
1.97000000e+00	2.38456444e-03	8.31230946e-05
1.97500000e+00	2.40530040e-03	8.44236944e-05
1.98000000e+00	2.37367706e-03	8.37473083e-05
1.98500000e+00	2.36958156e-03	8.37649814e-05
1.99000000e+00	2.33433222e-03	8.14938806e-05
1.99500000e+00	2.34939798e-03	8.23729059e-05
2.00000000e+00	2.34966632e-03	8.29443492e-05
2.00500000e+00	2.36203899e-03	8.35404925e-05
2.01000000e+00	2.33237542e-03	9.04954659e-05
2.01500000e+00	2.30568067e-03	9.49821509e-05
2.02000000e+00	2.28212251e-03	1.00320408e-04
2.02500000e+00	2.29592314e-03	1.04752705e-04
2.03000000e+00	2.27525756e-03	1.10023760e-04
2.03500000e+00	2.25001691e-03	1.13734698e-04
2.04000000e+00	2.26469610e-03	1.19646295e-04
2.04500000e+00	2.24509105e-03	1.24706875e-04
2.05000000e+00	2.21767758e-03	1.29189188e-04
2.05500000e+00	2.24974160e-03	1.28460313e-04
2.06000000e+00	2.27114764e-03	1.12929168e-04
2.06500000e+00	2.25022407e-03	1.06817481e-04
2.07000000e+00	2.23343221e-03	1.00528492e-04
2.07500000e+00	2.20998035e-03	9.71855999e-05
2.08000000e+00	2.21943472e-03	9.75229241e-05
2.08500000e+00	2.22689390e-03	9.69801330e-05
2.09000000e+00	2.22517799e-03	9.39802745e-05
2.09500000e+00	2.21937111e-03	9.25653745e-05
2.10000000e+00	2.19539470e-03	9.10677492e-05
2.10500000e+00	2.16895943e-03	8.96994924e-05
2.11000000e+00	2.18764161e-03	8.71584629e-05
2.11500000e+00	2.16752359e-03	8.54954630e-05
2.12000000e+00	2.15205753e-03	8.44131127e-05
2.12500000e+00	2.12203132e-03	8.30634210e-05
2.13000000e+00	2.11051601e-03	7.92511969e-05
2.13500000e+00	2.11042385e-03	7.82446741e-05
2.14000000e+00	2.08881973e-03	7.67775164e-05
2.14500000e+00	2.09725616e-03	7.72727224e-05
2.15000000e+00	2.07678423e-03	7.39398260e-05
2.15500000e+00	2.06670121e-03	7.38201832e-05
2.16000000e+00	2.07891917e-03	7.37932186e-05
2.16500000e+00	2.04590876e-03	7.31951039e-05
2.17000000e+00	2.02629784e-03	7.07396035e-05
2.17500000e+00	2.00843658e-03	7.03217756e-05
2.18000000e+00	2.01275390e-03	7.06276544e-05
2.18500000e+00	2.00500254e-03	7.07068582e-05
2.19000000e+00	1.98660621e-03	6.98970103e-05
2.19500000e+00	1.98972379e-03	6.95716102e-05
2.20000000e+00	1.96710510e-03	6.88786491e-05
2.20500000e+00	1.96189635e-03	6.90160804e-05
2.21000000e+00	1.94367456e-03	6.86661337e-05
2.21500000e+00	1.94183901e-03	6.78638275e-05
2.22000000e+00	1.93600251e-03	6.76037344e-05
2.22500000e+00	1.91578490e-03	6.74669849e-05
2.23000000e+00	1.91823206e-03	6.79737268e-05
2.23500000e+00	1.88949700e-03	6.60008001e-05
2.24000000e+00	1.89282735e-03	6.61460323e-05
2.24500000e+00	1.88089221e-03	6.62012327e-05
2.25000000e+00	1.86433158e-03	6.61415222e-05
2.25500000e+00	1.86635263e-03	6.50536138e-05
2.26000000e+00	1.84328783e-03	6.45138576e-05
2.26500000e+00	1.84383726e-03	6.47809531e-05
2.27000000e+00	1.83017719e-03	6.51554658e-05
2.27500000e+00	1.80788035e-03	6.30168942e-05
2.28000000e+00	1.78903373e-03	6.24722409e-05
2.28500000e+00	1.79920654e-03	6.32272714e-05
2.29000000e+00	1.77650028e-03	6.28042354e-05
2.29500000e+00	1.78731016e-03	6.29914114e-05
2.30000000e+00	1.76979849e-03	6.17969606e-05
2.30500000e+00	1.74846659e-03	6.11544926e-05
2.31000000e+00	1.73724271e-03	6.10831809e-05
2.31500000e+00	1.73325078e-03	6.14706376e-05
2.32000000e+00	1.73614752e-03	6.03209401e-05
2.32500000e+00	1.72061473e-03	6.02282689e-05
2.33000000e+00	1.68862980e-03	5.92785699e-05
2.33500000e+00	1.70551644e-03	6.05115522e-05
2.34000000e+00	1.69173039e-03	5.90227390e-05
2.34500000e+00	1.67333900e-03	5.83272254e-05
2.35000000e+00	1.66522463e-03	5.83415273e-05
2.35500000e+00	1.65968298e-03	5.88732851e-05
2.36000000e+00	1.65460062e-03	5.78611723e-05
2.36500000e+00	1.64312117e-03	5.73906509e-05
2.37000000e+00	1.61169787e-03	5.63502476e-05
2.37500000e+00	1.60739174e-03	5.66451593e-05
2.38000000e+00	1.60177761e-03	5.68122017e-05
2.38500000e+00	1.61733210e-03	5.64988595e-05
2.39000000e+00	1.58359524e-03	5.55023052e-05
2.39500000e+00	1.57802093e-03	5.55798801e-05
2.40000000e+00	1.59186983e-03	5.68502297e-05
2.40500000e+00	1.57452943e-03	5.51585347e-05
2.41000000e+00	1.56184724e-03	5.48393257e-05
2.41500000e+00	1.53679761e-03	5.40116727e-05
2.42000000e+00	1.51658044e-03	5.40400596e-05
2.42500000e+00	1.51836999e-03	5.40467850e-05
2.43000000e+00	1.50759418e-03	5.31508007e-05
2.43500000e+00	1.51325970e-03	5.35714121e-05
2.44000000e+00	1.48582700e-03	5.26899379e-05
2.44500000e+00	1.49611835e-03	5.37596537e-05
2.45000000e+00	1.49171589e-03	5.25872367e-05
2.45500000e+00	1.46778034e-03	5.18848915e-05
2.46000000e+00	1.45858894e-03	5.17334905e-05
2.46500000e+00	1.46586118e-03	5.27615553e-05
2.47000000e+00	1.45501028e-03	5.17987471e-05
2.47500000e+00	1.44989317e-03	5.13048954e-05
2.48000000e+00	1.42829110e-03	5.10418914e-05
2.48500000e+00	1.42046448e-03	5.06279845e-05
2.49000000e+00	1.42633305e-03	5.15760614e-05
2.49500000e+00	1.41024047e-03	5.00244580e-05
2.50000000e+00	1.39506621e-03	4.96463070e-05
2.50500000e+00	1.39311906e-03	4.98636847e-05
2.51000000e+00	1.38113912e-03	4.97783366e-05
2.51500000e+00	1.36890865e-03	4.93797893e-05
2.52000000e+00	1.36941517e-03	4.89696770e-05
2.52500000e+00	1.35949212e-03	4.88527403e-05
2.53000000e+00	1.34507361e-03	4.88166573e-05
2.53500000e+00	1.34145510e-03	4.92597133e-05
2.54000000e+00	1.33556947e-03	4.82561586e-05
2.54500000e+00	1.32751844e-03	4.81424186e-05
2.55000000e+00	1.31761991e-03	4.80631904e-05
2.55500000e+00	1.32540820e-03	4.87363949e-05
2.56000000e+00	1.30938411e-03	4.83550632e-05
2.56500000e+00	1.31486484e-03	4.81126385e-05
2.57000000e+00	1.30600614e-03	4.80268491e-05
2.57500000e+00	1.27125260e-03	4.69014662e-05
2.58000000e+00	1.28540906e-03	4.81785560e-05
2.58500000e+00	1.26173438e-03	4.70449985e-05
2.59000000e+00	1.28545739e-03	4.76405855e-05
2.59500000e+00	1.25940060e-03	4.68593251e-05
2.60000000e+00	1.26026460e-03	4.72288533e-05
2.60500000e+00	1.27705388e-03	4.89112638e-05
2.61000000e+00	1.26290868e-03	5.52138628e-05
2.61500000e+00	1.24134851e-03	5.98860093e-05
2.62000000e+00	1.22415482e-03	6.52392905e-05
2.62500000e+00	1.23159668e-03	7.07449010e-05
2.63000000e+00	1.20687408e-03	7.66685705e-05
2.63500000e+00	1.21173403e-03	8.51514448e-05
2.64000000e+00	1.23284518e-03	9.56184260e-05
2.64500000e+00	1.20051387e-03	9.95109285e-05
2.65000000e+00	1.23584440e-03	1.08348775e-04
2.65500000e+00	1.17506649e-03	1.10968915e-04
2.66000000e+00	1.21625557e-03	1.23083279e-04
2.66500000e+00	1.20735193e-03	1.37380050e-04
2.67000000e+00	1.13040455e-03	1.40345489e-04
2.67500000e+00	1.19017368e-03	1.71144432e-04
2.68000000e+00	1.18345716e-03	1.97087179e-04
2.68500000e+00	1.22673300e-03	2.70649417e-04
2.69000000e+00	1.19535354e-03	4.27795443e-04
2.69500000e+00	0.00000000e+00	0.00000000e+00
2.70000000e+00	0.00000000e+00	0.00000000e+00
