% Filename : WDL5_p7_00025_00021.h5
% Date & Time : 30-Oct-2025 16:56:35
% X-ray Energy (keV) : 13.30001
% Exposure Time (s) : 0.500
% Photodiode Value : 140387.000
% I0 of Sample : 0
% I0 of Standard : 1
% 
% q(A^-1)   I(q)    I(q)_SE
8.40000000e-01	0.00000000e+00	0.00000000e+00
8.45000000e-01	3.62826675e-03	6.35169107e-04
8.50000000e-01	3.42492335e-03	3.17242281e-04
8.55000000e-01	3.38291208e-03	2.76167373e-04
8.60000000e-01	3.34138822e-03	2.36405136e-04
8.65000000e-01	3.32100525e-03	2.16021078e-04
8.70000000e-01	3.37082913e-03	2.08993819e-04
8.75000000e-01	3.38173730e-03	2.01739935e-04
8.80000000e-01	3.42964715e-03	1.98282451e-04
8.85000000e-01	3.46318234e-03	1.88853466e-04
8.90000000e-01	3.35011204e-03	1.78841802e-04
8.95000000e-01	3.39501644e-03	1.76215693e-04
9.00000000e-01	3.39854608e-03	1.74763025e-04
9.05000000e-01	3.40267566e-03	1.67211038e-04
9.10000000e-01	3.43560637e-03	1.65695087e-04
9.15000000e-01	3.46339492e-03	1.64608504e-04
9.20000000e-01	3.44867240e-03	1.63492946e-04
9.25000000e-01	3.46547521e-03	1.57256759e-04
9.30000000e-01	3.49046447e-03	1.56782086e-04
9.35000000e-01	3.47926173e-03	1.53171693e-04
9.40000000e-01	3.50301269e-03	1.54774492e-04
9.45000000e-01	3.49982602e-03	1.50876224e-04
9.50000000e-01	3.53445136e-03	1.49986547e-04
9.55000000e-01	3.52811934e-03	1.47001741e-04
9.60000000e-01	3.54083445e-03	1.47770978e-04
9.65000000e-01	3.53961517e-03	1.45252817e-04
9.70000000e-01	3.54638435e-03	1.43169019e-04
9.75000000e-01	3.59463078e-03	1.43444988e-04
9.80000000e-01	3.58422573e-03	1.41857727e-04
9.85000000e-01	3.60142606e-03	1.42648975e-04
9.90000000e-01	3.61747439e-03	1.38966334e-04
9.95000000e-01	3.62248136e-03	1.38394404e-04
1.00000000e+00	3.65692991e-03	1.39095609e-04
1.00500000e+00	3.66543187e-03	1.39452189e-04
1.01000000e+00	3.68714155e-03	1.37178203e-04
1.01500000e+00	3.69090334e-03	1.35942211e-04
1.02000000e+00	3.70400618e-03	1.36564868e-04
1.02500000e+00	3.69083600e-03	1.34234900e-04
1.03000000e+00	3.70992449e-03	1.34482227e-04
1.03500000e+00	3.71773042e-03	1.32787383e-04
1.04000000e+00	3.72128576e-03	1.32031838e-04
1.04500000e+00	3.71443730e-03	1.31832848e-04
1.05000000e+00	3.72814328e-03	1.31469281e-04
1.05500000e+00	3.71781710e-03	1.29038741e-04
1.06000000e+00	3.73572893e-03	1.29375643e-04
1.06500000e+00	3.74516353e-03	1.29724153e-04
1.07000000e+00	3.77560123e-03	1.30580679e-04
1.07500000e+00	3.79615676e-03	1.30366022e-04
1.08000000e+00	3.78576381e-03	1.29210925e-04
1.08500000e+00	3.82265777e-03	1.30491379e-04
1.09000000e+00	3.81404165e-03	1.31058705e-04
1.09500000e+00	3.82160643e-03	1.28658194e-04
1.10000000e+00	3.86828123e-03	1.31105489e-04
1.10500000e+00	3.86744760e-03	1.31581145e-04
1.11000000e+00	3.90744379e-03	1.32978426e-04
1.11500000e+00	3.90126608e-03	1.31877857e-04
1.12000000e+00	3.94689077e-03	1.34013973e-04
1.12500000e+00	3.96547259e-03	1.34220461e-04
1.13000000e+00	3.95336878e-03	1.35452662e-04
1.13500000e+00	3.99761488e-03	1.35370286e-04
1.14000000e+00	4.03391880e-03	1.36289757e-04
1.14500000e+00	4.06910642e-03	1.38561094e-04
1.15000000e+00	4.06285350e-03	1.39141740e-04
1.15500000e+00	4.07558658e-03	1.38206191e-04
1.16000000e+00	4.09813735e-03	1.39310309e-04
1.16500000e+00	4.09932832e-03	1.39187578e-04
1.17000000e+00	4.12370658e-03	1.41803656e-04
1.17500000e+00	4.16998414e-03	1.41390047e-04
1.18000000e+00	4.15164964e-03	1.41373262e-04
1.18500000e+00	4.18059455e-03	1.42159350e-04
1.19000000e+00	4.17674035e-03	1.43514015e-04
1.19500000e+00	4.18589576e-03	1.42209491e-04
1.20000000e+00	4.18837959e-03	1.43040992e-04
1.20500000e+00	4.23112774e-03	1.44269178e-04
1.21000000e+00	4.23498171e-03	1.46339405e-04
1.21500000e+00	4.24006037e-03	1.44134790e-04
1.22000000e+00	4.23168666e-03	1.44073849e-04
1.22500000e+00	4.25683538e-03	1.45420304e-04
1.23000000e+00	4.23671184e-03	1.45854939e-04
1.23500000e+00	4.26685332e-03	1.45940566e-04
1.24000000e+00	4.28938708e-03	1.46001833e-04
1.24500000e+00	4.27727053e-03	1.46705740e-04
1.25000000e+00	4.28575089e-03	1.47899967e-04
1.25500000e+00	4.28863114e-03	1.46171280e-04
1.26000000e+00	4.30125630e-03	1.47490434e-04
1.26500000e+00	4.31389309e-03	1.47439558e-04
1.27000000e+00	4.31835222e-03	1.49689946e-04
1.27500000e+00	4.35021535e-03	1.49324272e-04
1.28000000e+00	4.33273033e-03	1.47762502e-04
1.28500000e+00	4.32869453e-03	1.48541961e-04
1.29000000e+00	4.33550389e-03	1.50066576e-04
1.29500000e+00	4.36333381e-03	1.49319785e-04
1.30000000e+00	4.35566715e-03	1.48874785e-04
1.30500000e+00	4.35466416e-03	1.49498396e-04
1.31000000e+00	4.37577398e-03	1.52014473e-04
1.31500000e+00	4.37388156e-03	1.50087632e-04
1.32000000e+00	4.39499770e-03	1.50631617e-04
1.32500000e+00	4.43044811e-03	1.52251607e-04
1.33000000e+00	4.43343161e-03	1.54219363e-04
1.33500000e+00	4.43713907e-03	1.52249706e-04
1.34000000e+00	4.46454412e-03	1.53319603e-04
1.34500000e+00	4.48064065e-03	1.54439434e-04
1.35000000e+00	4.46263532e-03	1.55228875e-04
1.35500000e+00	4.47365940e-03	1.53524033e-04
1.36000000e+00	4.48337894e-03	1.53587563e-04
1.36500000e+00	4.49906026e-03	1.54715384e-04
1.37000000e+00	4.52942080e-03	1.58045835e-04
1.37500000e+00	4.50215815e-03	1.54685788e-04
1.38000000e+00	4.54002609e-03	1.56347346e-04
1.38500000e+00	4.54564395e-03	1.57402275e-04
1.39000000e+00	4.56217966e-03	1.59002381e-04
1.39500000e+00	4.55913588e-03	1.56573576e-04
1.40000000e+00	4.63318207e-03	1.63885201e-04
1.40500000e+00	4.62592525e-03	1.76076768e-04
1.41000000e+00	4.61719959e-03	1.83951210e-04
1.41500000e+00	4.60805600e-03	1.90435591e-04
1.42000000e+00	4.60007453e-03	1.97586254e-04
1.42500000e+00	4.59132027e-03	2.03112317e-04
1.43000000e+00	4.57711524e-03	2.10087902e-04
1.43500000e+00	4.58550311e-03	2.16939304e-04
1.44000000e+00	4.64277679e-03	2.28250637e-04
1.44500000e+00	4.63478022e-03	2.33739875e-04
1.45000000e+00	4.74900631e-03	2.31636348e-04
1.45500000e+00	4.75294908e-03	2.08360279e-04
1.46000000e+00	4.71890795e-03	2.01970609e-04
1.46500000e+00	4.69819955e-03	1.97260417e-04
1.47000000e+00	4.69294832e-03	1.96871451e-04
1.47500000e+00	4.64956782e-03	1.89429378e-04
1.48000000e+00	4.61359457e-03	1.85821721e-04
1.48500000e+00	4.63732665e-03	1.86992615e-04
1.49000000e+00	4.58818990e-03	1.85383798e-04
1.49500000e+00	4.59952070e-03	1.81732339e-04
1.50000000e+00	4.60739290e-03	1.81586961e-04
1.50500000e+00	4.62504891e-03	1.83177767e-04
1.51000000e+00	4.66984871e-03	1.85304455e-04
1.51500000e+00	4.74219717e-03	1.85299776e-04
1.52000000e+00	4.90944942e-03	1.91077816e-04
1.52500000e+00	4.81585199e-03	1.87319230e-04
1.53000000e+00	4.66078590e-03	1.82365447e-04
1.53500000e+00	4.57044037e-03	1.73746945e-04
1.54000000e+00	4.60194841e-03	1.74715420e-04
1.54500000e+00	4.54177393e-03	1.72123556e-04
1.55000000e+00	4.54704614e-03	1.71790478e-04
1.55500000e+00	4.50199328e-03	1.66266315e-04
1.56000000e+00	4.51829865e-03	1.67235448e-04
1.56500000e+00	4.48517502e-03	1.65046182e-04
1.57000000e+00	4.51149823e-03	1.64864193e-04
1.57500000e+00	4.47485378e-03	1.60534332e-04
1.58000000e+00	4.47776448e-03	1.60261699e-04
1.58500000e+00	4.49704112e-03	1.60961106e-04
1.59000000e+00	4.49206733e-03	1.60845402e-04
1.59500000e+00	4.47114460e-03	1.57120412e-04
1.60000000e+00	4.49577165e-03	1.57854511e-04
1.60500000e+00	4.48540550e-03	1.57597748e-04
1.61000000e+00	4.47517898e-03	1.56591363e-04
1.61500000e+00	4.48159939e-03	1.55325505e-04
1.62000000e+00	4.43994481e-03	1.54521079e-04
1.62500000e+00	4.44785294e-03	1.56703656e-04
1.63000000e+00	4.40869908e-03	1.53704663e-04
1.63500000e+00	4.34568438e-03	1.51444726e-04
1.64000000e+00	4.32295921e-03	1.50760289e-04
1.64500000e+00	4.29094620e-03	1.51238435e-04
1.65000000e+00	4.26980944e-03	1.48847655e-04
1.65500000e+00	4.23964531e-03	1.47651881e-04
1.66000000e+00	4.20975354e-03	1.46790729e-04
1.66500000e+00	4.20812364e-03	1.49182615e-04
1.67000000e+00	4.18736754e-03	1.45372696e-04
1.67500000e+00	4.15361918e-03	1.44536465e-04
1.68000000e+00	4.14557591e-03	1.44726074e-04
1.68500000e+00	4.15211207e-03	1.47403875e-04
1.69000000e+00	4.13894654e-03	1.44053450e-04
1.69500000e+00	4.09448930e-03	1.42278849e-04
1.70000000e+00	4.08003598e-03	1.43361973e-04
1.70500000e+00	4.05641158e-03	1.43455399e-04
1.71000000e+00	4.06582176e-03	1.43404373e-04
1.71500000e+00	4.02885681e-03	1.40972777e-04
1.72000000e+00	4.01223255e-03	1.40837847e-04
1.72500000e+00	3.98232811e-03	1.40693922e-04
1.73000000e+00	3.95537232e-03	1.37868525e-04
1.73500000e+00	3.96798319e-03	1.38628027e-04
1.74000000e+00	3.96327487e-03	1.38862073e-04
1.74500000e+00	3.92097178e-03	1.38876903e-04
1.75000000e+00	3.91408024e-03	1.36019441e-04
1.75500000e+00	3.90764820e-03	1.36776857e-04
1.76000000e+00	3.90071660e-03	1.36405604e-04
1.76500000e+00	3.89359197e-03	1.37966304e-04
1.77000000e+00	3.84718662e-03	1.33991766e-04
1.77500000e+00	3.86655645e-03	1.35019029e-04
1.78000000e+00	3.83756914e-03	1.34473249e-04
1.78500000e+00	3.86077876e-03	1.36771856e-04
1.79000000e+00	4.03195371e-03	1.49544647e-04
1.79500000e+00	3.86791850e-03	1.35737158e-04
1.80000000e+00	3.78866308e-03	1.33096141e-04
1.80500000e+00	3.76542854e-03	1.33084616e-04
1.81000000e+00	3.75916101e-03	1.30924924e-04
1.81500000e+00	3.75652146e-03	1.30896239e-04
1.82000000e+00	3.73550895e-03	1.31140214e-04
1.82500000e+00	3.73322116e-03	1.31790801e-04
1.83000000e+00	3.75528015e-03	1.30977303e-04
1.83500000e+00	3.73317254e-03	1.30355799e-04
1.84000000e+00	3.69871524e-03	1.29903721e-04
1.84500000e+00	3.68130203e-03	1.29979980e-04
1.85000000e+00	3.69014020e-03	1.28744377e-04
1.85500000e+00	3.68645631e-03	1.28759877e-04
1.86000000e+00	3.66188581e-03	1.28744004e-04
1.86500000e+00	3.65997226e-03	1.28955039e-04
1.87000000e+00	3.62728610e-03	1.26523205e-04
1.87500000e+00	3.60245291e-03	1.26021991e-04
1.88000000e+00	3.59995984e-03	1.26423351e-04
1.88500000e+00	3.58607540e-03	1.26753533e-04
1.89000000e+00	3.55388055e-03	1.23835799e-04
1.89500000e+00	3.54722286e-03	1.24299412e-04
1.90000000e+00	3.49275709e-03	1.22817987e-04
1.90500000e+00	3.47460236e-03	1.22241528e-04
1.91000000e+00	3.49095310e-03	1.21993081e-04
1.91500000e+00	3.48618945e-03	1.21879364e-04
1.92000000e+00	3.44518449e-03	1.21087019e-04
1.92500000e+00	3.45339648e-03	1.21525969e-04
1.93000000e+00	3.41799464e-03	1.19268297e-04
1.93500000e+00	3.42539322e-03	1.19801509e-04
1.94000000e+00	3.39087461e-03	1.19541905e-04
1.94500000e+00	3.37049031e-03	1.18515022e-04
1.95000000e+00	3.35292349e-03	1.16841889e-04
1.95500000e+00	3.36069580e-03	1.17627465e-04
1.96000000e+00	3.34706233e-03	1.17817278e-04
1.96500000e+00	3.34638652e-03	1.17875733e-04
1.97000000e+00	3.34721834e-03	1.16453316e-04
1.97500000e+00	3.33497241e-03	1.16792399e-04
1.98000000e+00	3.31959445e-03	1.16910598e-04
1.98500000e+00	3.31008405e-03	1.16667745e-04
1.99000000e+00	3.28460832e-03	1.14289336e-04
1.99500000e+00	3.27500978e-03	1.14683228e-04
2.00000000e+00	3.28005197e-03	1.15780609e-04
2.00500000e+00	3.27635687e-03	1.15538065e-04
2.01000000e+00	3.26039806e-03	1.26300565e-04
2.01500000e+00	3.19263820e-03	1.31229651e-04
2.02000000e+00	3.16536120e-03	1.38720139e-04
2.02500000e+00	3.18403285e-03	1.44950795e-04
2.03000000e+00	3.17218680e-03	1.52964027e-04
2.03500000e+00	3.15645417e-03	1.59004162e-04
2.04000000e+00	3.12596690e-03	1.64737554e-04
2.04500000e+00	3.12324449e-03	1.73013628e-04
2.05000000e+00	3.09743074e-03	1.80185316e-04
2.05500000e+00	3.14248038e-03	1.79319507e-04
2.06000000e+00	3.14466364e-03	1.55994854e-04
2.06500000e+00	3.14800669e-03	1.49193692e-04
2.07000000e+00	3.19610064e-03	1.43498982e-04
2.07500000e+00	3.30008438e-03	1.46007834e-04
2.08000000e+00	3.15536525e-03	1.38167819e-04
2.08500000e+00	3.10363248e-03	1.34698207e-04
2.09000000e+00	3.05907619e-03	1.28838683e-04
2.09500000e+00	3.08813738e-03	1.28748657e-04
2.10000000e+00	3.06377222e-03	1.26948451e-04
2.10500000e+00	3.04584956e-03	1.25671483e-04
2.11000000e+00	3.01731232e-03	1.19951234e-04
2.11500000e+00	3.01660200e-03	1.18751782e-04
2.12000000e+00	3.00692672e-03	1.17715178e-04
2.12500000e+00	2.98965216e-03	1.16709628e-04
2.13000000e+00	2.97495252e-03	1.11412972e-04
2.13500000e+00	2.96559558e-03	1.09669879e-04
2.14000000e+00	2.93381075e-03	1.07515605e-04
2.14500000e+00	2.91224350e-03	1.06925363e-04
2.15000000e+00	2.88889175e-03	1.02689358e-04
2.15500000e+00	2.87825386e-03	1.02448593e-04
2.16000000e+00	2.88265974e-03	1.02085702e-04
2.16500000e+00	2.88069369e-03	1.02758587e-04
2.17000000e+00	2.86915951e-03	9.98409435e-05
2.17500000e+00	2.85873133e-03	9.98168257e-05
2.18000000e+00	2.84880626e-03	9.97016696e-05
2.18500000e+00	2.82093123e-03	9.92050686e-05
2.19000000e+00	2.80833261e-03	9.85200751e-05
2.19500000e+00	2.77831426e-03	9.68876592e-05
2.20000000e+00	2.79051642e-03	9.75416480e-05
2.20500000e+00	2.76142058e-03	9.68197026e-05
2.21000000e+00	2.76721404e-03	9.75594257e-05
2.21500000e+00	2.75447821e-03	9.59787412e-05
2.22000000e+00	2.73778824e-03	9.53531109e-05
2.22500000e+00	2.71371321e-03	9.52787912e-05
2.23000000e+00	2.69447556e-03	9.51293201e-05
2.23500000e+00	2.67695823e-03	9.31844463e-05
2.24000000e+00	2.67130408e-03	9.30428470e-05
2.24500000e+00	2.66121122e-03	9.33515702e-05
2.25000000e+00	2.62956065e-03	9.31326007e-05
2.25500000e+00	2.61048836e-03	9.07327558e-05
2.26000000e+00	2.58922154e-03	9.02905225e-05
2.26500000e+00	2.58517978e-03	9.05233223e-05
2.27000000e+00	2.56961079e-03	9.12919775e-05
2.27500000e+00	2.52995001e-03	8.80485135e-05
2.28000000e+00	2.50545461e-03	8.71816293e-05
2.28500000e+00	2.49503785e-03	8.73785787e-05
2.29000000e+00	2.49684269e-03	8.79889196e-05
2.29500000e+00	2.46865725e-03	8.65937431e-05
2.30000000e+00	2.47279718e-03	8.59599969e-05
2.30500000e+00	2.47519372e-03	8.62263193e-05
2.31000000e+00	2.43249370e-03	8.52969099e-05
2.31500000e+00	2.44403734e-03	8.63537584e-05
2.32000000e+00	2.41005499e-03	8.34699574e-05
2.32500000e+00	2.42490318e-03	8.46571661e-05
2.33000000e+00	2.38744139e-03	8.35063453e-05
2.33500000e+00	2.40309169e-03	8.49572403e-05
2.34000000e+00	2.38514351e-03	8.29131874e-05
2.34500000e+00	2.37363267e-03	8.25245170e-05
2.35000000e+00	2.37451326e-03	8.28757256e-05
2.35500000e+00	2.37865855e-03	8.40827322e-05
2.36000000e+00	2.35600246e-03	8.21280439e-05
2.36500000e+00	2.35565177e-03	8.20215454e-05
2.37000000e+00	2.34408512e-03	8.16755712e-05
2.37500000e+00	2.32766639e-03	8.18130103e-05
2.38000000e+00	2.34804520e-03	8.29120610e-05
2.38500000e+00	2.33840508e-03	8.13922739e-05
2.39000000e+00	2.31832872e-03	8.09135638e-05
2.39500000e+00	2.31016832e-03	8.11599228e-05
2.40000000e+00	2.28216443e-03	8.13661785e-05
2.40500000e+00	2.27698121e-03	7.95578555e-05
2.41000000e+00	2.27527016e-03	7.97412442e-05
2.41500000e+00	2.27095845e-03	7.95490907e-05
2.42000000e+00	2.31470445e-03	8.21887479e-05
2.42500000e+00	2.40063934e-03	8.51865102e-05
2.43000000e+00	2.44443360e-03	8.59407639e-05
2.43500000e+00	2.35428563e-03	8.30012609e-05
2.44000000e+00	2.26300404e-03	7.99182344e-05
2.44500000e+00	2.19402340e-03	7.85597171e-05
2.45000000e+00	2.18897716e-03	7.69821219e-05
2.45500000e+00	2.15522844e-03	7.60668498e-05
2.46000000e+00	2.13792283e-03	7.57836023e-05
2.46500000e+00	2.11978400e-03	7.60139605e-05
2.47000000e+00	2.09697642e-03	7.45402134e-05
2.47500000e+00	2.10245442e-03	7.43079437e-05
2.48000000e+00	2.09582136e-03	7.47387171e-05
2.48500000e+00	2.07224281e-03	7.39251077e-05
2.49000000e+00	2.05986223e-03	7.44461691e-05
2.49500000e+00	2.04659883e-03	7.26268632e-05
2.50000000e+00	2.02771981e-03	7.21231185e-05
2.50500000e+00	2.01293525e-03	7.20787464e-05
2.51000000e+00	2.02601754e-03	7.29674768e-05
2.51500000e+00	2.01229705e-03	7.25662198e-05
2.52000000e+00	2.04136475e-03	7.31368514e-05
2.52500000e+00	2.02042957e-03	7.26130087e-05
2.53000000e+00	1.97684857e-03	7.16717501e-05
2.53500000e+00	1.97650186e-03	7.25082761e-05
2.54000000e+00	1.96484582e-03	7.09168052e-05
2.54500000e+00	1.95697452e-03	7.09199556e-05
2.55000000e+00	1.94720111e-03	7.08393933e-05
2.55500000e+00	1.93794174e-03	7.11615245e-05
2.56000000e+00	1.93516265e-03	7.14356069e-05
2.56500000e+00	1.93359769e-03	7.07049779e-05
2.57000000e+00	1.90121460e-03	6.98338191e-05
2.57500000e+00	1.91002076e-03	7.03024231e-05
2.58000000e+00	1.89739848e-03	7.10245421e-05
2.58500000e+00	1.88971910e-03	7.01924777e-05
2.59000000e+00	1.88920252e-03	6.98869597e-05
2.59500000e+00	1.88957621e-03	7.02221168e-05
2.60000000e+00	1.85394989e-03	6.94560988e-05
2.60500000e+00	1.88700587e-03	7.23090087e-05
2.61000000e+00	1.85900213e-03	8.11182240e-05
2.61500000e+00	1.82741071e-03	8.83614928e-05
2.62000000e+00	1.80162907e-03	9.60264494e-05
2.62500000e+00	1.74551307e-03	1.00887444e-04
2.63000000e+00	1.76435657e-03	1.12755033e-04
2.63500000e+00	1.84659892e-03	1.29984917e-04
2.64000000e+00	1.89775982e-03	1.46582436e-04
2.64500000e+00	1.84984126e-03	1.52708620e-04
2.65000000e+00	1.83868014e-03	1.60996073e-04
2.65500000e+00	1.87742259e-03	1.75927320e-04
2.66000000e+00	1.83971610e-03	1.85360223e-04
2.66500000e+00	1.82563657e-03	2.06105066e-04
2.67000000e+00	1.83364918e-03	2.24836540e-04
2.67500000e+00	1.85804849e-03	2.65752574e-04
2.68000000e+00	1.86352547e-03	3.09313006e-04
2.68500000e+00	1.94959124e-03	4.31338730e-04
2.69000000e+00	2.04533682e-03	7.33793635e-04
2.69500000e+00	0.00000000e+00	0.00000000e+00
2.70000000e+00	0.00000000e+00	0.00000000e+00
