% Filename : WDL5_p7_00023_00027.h5
% Date & Time : 30-Oct-2025 16:53:26
% X-ray Energy (keV) : 13.30001
% Exposure Time (s) : 0.500
% Photodiode Value : 140665.000
% I0 of Sample : 0
% I0 of Standard : 1
% 
% q(A^-1)   I(q)    I(q)_SE
8.40000000e-01	0.00000000e+00	0.00000000e+00
8.45000000e-01	2.97131165e-03	5.20389595e-04
8.50000000e-01	2.78761555e-03	2.58819789e-04
8.55000000e-01	2.72678068e-03	2.23045297e-04
8.60000000e-01	2.73470066e-03	1.93359951e-04
8.65000000e-01	2.69859478e-03	1.75828695e-04
8.70000000e-01	2.77745177e-03	1.72599068e-04
8.75000000e-01	2.75025806e-03	1.64428891e-04
8.80000000e-01	2.73265249e-03	1.58058685e-04
8.85000000e-01	2.75671619e-03	1.50637454e-04
8.90000000e-01	2.78761102e-03	1.49097680e-04
8.95000000e-01	2.76172754e-03	1.43514146e-04
9.00000000e-01	2.78095702e-03	1.43125461e-04
9.05000000e-01	2.80808079e-03	1.38071863e-04
9.10000000e-01	2.80347136e-03	1.35375959e-04
9.15000000e-01	2.81367549e-03	1.33657279e-04
9.20000000e-01	2.79515099e-03	1.32922995e-04
9.25000000e-01	2.82100465e-03	1.28163544e-04
9.30000000e-01	2.85328862e-03	1.28270480e-04
9.35000000e-01	2.85054669e-03	1.25679370e-04
9.40000000e-01	2.84823202e-03	1.26030238e-04
9.45000000e-01	2.86510148e-03	1.23505415e-04
9.50000000e-01	2.85452310e-03	1.21366517e-04
9.55000000e-01	2.87164070e-03	1.19870151e-04
9.60000000e-01	2.87305208e-03	1.20059450e-04
9.65000000e-01	2.87943965e-03	1.18259269e-04
9.70000000e-01	2.87183508e-03	1.16053528e-04
9.75000000e-01	2.88792657e-03	1.15473261e-04
9.80000000e-01	2.89933636e-03	1.14964792e-04
9.85000000e-01	2.91482669e-03	1.15611476e-04
9.90000000e-01	2.90623334e-03	1.11757230e-04
9.95000000e-01	2.91013178e-03	1.11415877e-04
1.00000000e+00	2.92528776e-03	1.11447341e-04
1.00500000e+00	2.92084285e-03	1.11290557e-04
1.01000000e+00	2.90951547e-03	1.08471789e-04
1.01500000e+00	2.92368426e-03	1.07974629e-04
1.02000000e+00	2.94019222e-03	1.08605816e-04
1.02500000e+00	2.91968158e-03	1.06578685e-04
1.03000000e+00	2.93730889e-03	1.06680919e-04
1.03500000e+00	2.93158175e-03	1.05100841e-04
1.04000000e+00	2.92587753e-03	1.04111262e-04
1.04500000e+00	2.93212321e-03	1.04513457e-04
1.05000000e+00	2.90101473e-03	1.02764685e-04
1.05500000e+00	2.90634823e-03	1.01457882e-04
1.06000000e+00	2.91871967e-03	1.01520189e-04
1.06500000e+00	2.94779980e-03	1.02686779e-04
1.07000000e+00	2.92001911e-03	1.01549514e-04
1.07500000e+00	2.92260612e-03	1.00793674e-04
1.08000000e+00	2.94644069e-03	1.01035029e-04
1.08500000e+00	2.95329103e-03	1.01466328e-04
1.09000000e+00	2.93423953e-03	1.01300885e-04
1.09500000e+00	2.95653672e-03	1.00093891e-04
1.10000000e+00	2.98136143e-03	1.01481078e-04
1.10500000e+00	2.99306588e-03	1.02294664e-04
1.11000000e+00	2.97603974e-03	1.01780764e-04
1.11500000e+00	2.98137368e-03	1.01271540e-04
1.12000000e+00	3.02166870e-03	1.02946127e-04
1.12500000e+00	2.98762446e-03	1.01628672e-04
1.13000000e+00	3.01853057e-03	1.03881861e-04
1.13500000e+00	3.02358945e-03	1.02690155e-04
1.14000000e+00	3.02443818e-03	1.02548856e-04
1.14500000e+00	3.07470667e-03	1.05121880e-04
1.15000000e+00	3.05170432e-03	1.04878660e-04
1.15500000e+00	3.06008883e-03	1.04105833e-04
1.16000000e+00	3.10220415e-03	1.05785302e-04
1.16500000e+00	3.08478414e-03	1.05146333e-04
1.17000000e+00	3.07410238e-03	1.06089123e-04
1.17500000e+00	3.09039428e-03	1.05151280e-04
1.18000000e+00	3.11178942e-03	1.06370361e-04
1.18500000e+00	3.10329662e-03	1.05890859e-04
1.19000000e+00	3.10182613e-03	1.07088693e-04
1.19500000e+00	3.13933814e-03	1.06967275e-04
1.20000000e+00	3.13347214e-03	1.07356197e-04
1.20500000e+00	3.11204005e-03	1.06486976e-04
1.21000000e+00	3.12586962e-03	1.08221080e-04
1.21500000e+00	3.15247167e-03	1.07414236e-04
1.22000000e+00	3.12988108e-03	1.06883770e-04
1.22500000e+00	3.14073784e-03	1.07712043e-04
1.23000000e+00	3.11383783e-03	1.07553991e-04
1.23500000e+00	3.11200056e-03	1.06791472e-04
1.24000000e+00	3.15033165e-03	1.07517419e-04
1.24500000e+00	3.14792600e-03	1.08308008e-04
1.25000000e+00	3.14110861e-03	1.08732186e-04
1.25500000e+00	3.15954977e-03	1.08038830e-04
1.26000000e+00	3.14174490e-03	1.08032208e-04
1.26500000e+00	3.15059935e-03	1.08029353e-04
1.27000000e+00	3.16580787e-03	1.10060316e-04
1.27500000e+00	3.13626127e-03	1.07991841e-04
1.28000000e+00	3.15084751e-03	1.07869544e-04
1.28500000e+00	3.14615445e-03	1.08271322e-04
1.29000000e+00	3.14883679e-03	1.09314446e-04
1.29500000e+00	3.16585358e-03	1.08824480e-04
1.30000000e+00	3.15717975e-03	1.08246496e-04
1.30500000e+00	3.18076182e-03	1.09552389e-04
1.31000000e+00	3.17196501e-03	1.10558349e-04
1.31500000e+00	3.18623574e-03	1.09642937e-04
1.32000000e+00	3.18081221e-03	1.09333394e-04
1.32500000e+00	3.16397147e-03	1.09063235e-04
1.33000000e+00	3.15258170e-03	1.10007695e-04
1.33500000e+00	3.17801114e-03	1.09329181e-04
1.34000000e+00	3.17089030e-03	1.09173239e-04
1.34500000e+00	3.18304793e-03	1.10094700e-04
1.35000000e+00	3.19070742e-03	1.11447590e-04
1.35500000e+00	3.16681321e-03	1.09111941e-04
1.36000000e+00	3.16030000e-03	1.08644109e-04
1.36500000e+00	3.16528176e-03	1.09108250e-04
1.37000000e+00	3.17905713e-03	1.11341582e-04
1.37500000e+00	3.20130361e-03	1.10295900e-04
1.38000000e+00	3.19320476e-03	1.10304836e-04
1.38500000e+00	3.19414920e-03	1.10902429e-04
1.39000000e+00	3.17190269e-03	1.10863978e-04
1.39500000e+00	3.21835946e-03	1.10835453e-04
1.40000000e+00	3.20954927e-03	1.13891453e-04
1.40500000e+00	3.17403014e-03	1.21226951e-04
1.41000000e+00	3.16060243e-03	1.26386143e-04
1.41500000e+00	3.13745232e-03	1.30100298e-04
1.42000000e+00	3.15451944e-03	1.36112286e-04
1.42500000e+00	3.16991953e-03	1.40839379e-04
1.43000000e+00	3.12582265e-03	1.43826237e-04
1.43500000e+00	3.14490037e-03	1.49281896e-04
1.44000000e+00	3.13439767e-03	1.54646582e-04
1.44500000e+00	3.11387508e-03	1.57694400e-04
1.45000000e+00	3.19511235e-03	1.56344166e-04
1.45500000e+00	3.21826505e-03	1.41543357e-04
1.46000000e+00	3.22616686e-03	1.38474149e-04
1.46500000e+00	3.20514585e-03	1.35124406e-04
1.47000000e+00	3.18527105e-03	1.34120013e-04
1.47500000e+00	3.18156275e-03	1.30087541e-04
1.48000000e+00	3.18332822e-03	1.28695161e-04
1.48500000e+00	3.16072818e-03	1.27769261e-04
1.49000000e+00	3.17435454e-03	1.28619753e-04
1.49500000e+00	3.16906599e-03	1.25625456e-04
1.50000000e+00	3.19436106e-03	1.26271973e-04
1.50500000e+00	3.17859465e-03	1.26277891e-04
1.51000000e+00	3.16753465e-03	1.26076091e-04
1.51500000e+00	3.19554816e-03	1.25173060e-04
1.52000000e+00	3.20590798e-03	1.25155568e-04
1.52500000e+00	3.19851089e-03	1.24672271e-04
1.53000000e+00	3.20758699e-03	1.25768255e-04
1.53500000e+00	3.20693525e-03	1.22149839e-04
1.54000000e+00	3.17412168e-03	1.20762477e-04
1.54500000e+00	3.17416043e-03	1.20398453e-04
1.55000000e+00	3.19707814e-03	1.20961519e-04
1.55500000e+00	3.18492760e-03	1.17863228e-04
1.56000000e+00	3.18873503e-03	1.18240795e-04
1.56500000e+00	3.17545422e-03	1.17096393e-04
1.57000000e+00	3.14246283e-03	1.15075456e-04
1.57500000e+00	3.14618398e-03	1.13093851e-04
1.58000000e+00	3.13975660e-03	1.12655901e-04
1.58500000e+00	3.15639706e-03	1.13322738e-04
1.59000000e+00	3.14845050e-03	1.12993825e-04
1.59500000e+00	3.12887822e-03	1.10173495e-04
1.60000000e+00	3.14625035e-03	1.10730892e-04
1.60500000e+00	3.13885532e-03	1.10566595e-04
1.61000000e+00	3.10639424e-03	1.08934293e-04
1.61500000e+00	3.10102106e-03	1.07826788e-04
1.62000000e+00	3.10453162e-03	1.08320135e-04
1.62500000e+00	3.10033331e-03	1.09426404e-04
1.63000000e+00	3.07802798e-03	1.07546801e-04
1.63500000e+00	3.04826721e-03	1.06524069e-04
1.64000000e+00	3.05209109e-03	1.06731759e-04
1.64500000e+00	3.04135700e-03	1.07457101e-04
1.65000000e+00	3.00792845e-03	1.05159442e-04
1.65500000e+00	3.00783590e-03	1.05001709e-04
1.66000000e+00	3.01415352e-03	1.05371575e-04
1.66500000e+00	2.95536109e-03	1.05018832e-04
1.67000000e+00	2.96478481e-03	1.03259199e-04
1.67500000e+00	2.95049164e-03	1.02943128e-04
1.68000000e+00	2.93106740e-03	1.02583228e-04
1.68500000e+00	2.93790420e-03	1.04515896e-04
1.69000000e+00	2.91793364e-03	1.01831948e-04
1.69500000e+00	2.89651921e-03	1.00874489e-04
1.70000000e+00	2.89711893e-03	1.02017700e-04
1.70500000e+00	2.89287613e-03	1.02343745e-04
1.71000000e+00	2.90531043e-03	1.01503905e-04
1.71500000e+00	2.85720150e-03	9.98183593e-05
1.72000000e+00	2.85037937e-03	1.00205839e-04
1.72500000e+00	2.85454086e-03	1.01025695e-04
1.73000000e+00	2.84130331e-03	9.92426295e-05
1.73500000e+00	2.81967907e-03	9.87332274e-05
1.74000000e+00	2.79816577e-03	9.82364480e-05
1.74500000e+00	2.80916165e-03	9.97926194e-05
1.75000000e+00	2.80317308e-03	9.77274155e-05
1.75500000e+00	2.82032555e-03	9.89645831e-05
1.76000000e+00	2.78088395e-03	9.75354199e-05
1.76500000e+00	2.78050585e-03	9.88173777e-05
1.77000000e+00	2.78568738e-03	9.72874368e-05
1.77500000e+00	2.78633241e-03	9.75687573e-05
1.78000000e+00	2.75385688e-03	9.67138444e-05
1.78500000e+00	2.73976306e-03	9.72603531e-05
1.79000000e+00	2.75552582e-03	9.61150440e-05
1.79500000e+00	2.73604413e-03	9.57783177e-05
1.80000000e+00	2.74826932e-03	9.68333452e-05
1.80500000e+00	2.74032436e-03	9.71337248e-05
1.81000000e+00	2.71663543e-03	9.49401997e-05
1.81500000e+00	2.70932826e-03	9.46488805e-05
1.82000000e+00	2.70551136e-03	9.52145449e-05
1.82500000e+00	2.70532995e-03	9.58473194e-05
1.83000000e+00	2.68182226e-03	9.37675848e-05
1.83500000e+00	2.67864208e-03	9.37595543e-05
1.84000000e+00	2.67354955e-03	9.40961538e-05
1.84500000e+00	2.66126031e-03	9.42374201e-05
1.85000000e+00	2.66370444e-03	9.32001836e-05
1.85500000e+00	2.67087115e-03	9.35961148e-05
1.86000000e+00	2.64434553e-03	9.32240739e-05
1.86500000e+00	2.64098991e-03	9.33304458e-05
1.87000000e+00	2.62733363e-03	9.18963744e-05
1.87500000e+00	2.62157199e-03	9.18935684e-05
1.88000000e+00	2.62752753e-03	9.24823060e-05
1.88500000e+00	2.60072970e-03	9.21129410e-05
1.89000000e+00	2.60511134e-03	9.10242691e-05
1.89500000e+00	2.58268763e-03	9.07434129e-05
1.90000000e+00	2.57937611e-03	9.08934295e-05
1.90500000e+00	2.57979642e-03	9.09864653e-05
1.91000000e+00	2.57750176e-03	9.02286213e-05
1.91500000e+00	2.55514936e-03	8.95868073e-05
1.92000000e+00	2.54570506e-03	8.97509038e-05
1.92500000e+00	2.52102685e-03	8.89315065e-05
1.93000000e+00	2.52654794e-03	8.83433451e-05
1.93500000e+00	2.51452960e-03	8.82703713e-05
1.94000000e+00	2.52065462e-03	8.91407954e-05
1.94500000e+00	2.51595199e-03	8.86972877e-05
1.95000000e+00	2.50236198e-03	8.74223542e-05
1.95500000e+00	2.50195806e-03	8.77444992e-05
1.96000000e+00	2.49457158e-03	8.80759268e-05
1.96500000e+00	2.48277658e-03	8.76960067e-05
1.97000000e+00	2.46540931e-03	8.60219077e-05
1.97500000e+00	2.46687404e-03	8.66240743e-05
1.98000000e+00	2.44122186e-03	8.60577935e-05
1.98500000e+00	2.44416651e-03	8.63598006e-05
1.99000000e+00	2.43705669e-03	8.51334851e-05
1.99500000e+00	2.44720238e-03	8.58645311e-05
2.00000000e+00	2.44070262e-03	8.61676757e-05
2.00500000e+00	2.44499097e-03	8.64641067e-05
2.01000000e+00	2.40780647e-03	9.35427103e-05
2.01500000e+00	2.39829664e-03	9.89023729e-05
2.02000000e+00	2.39248361e-03	1.05136695e-04
2.02500000e+00	2.35689837e-03	1.07654036e-04
2.03000000e+00	2.32987392e-03	1.12837729e-04
2.03500000e+00	2.32254692e-03	1.17341138e-04
2.04000000e+00	2.28321243e-03	1.20609149e-04
2.04500000e+00	2.27308876e-03	1.26382951e-04
2.05000000e+00	2.29371604e-03	1.33997208e-04
2.05500000e+00	2.30297575e-03	1.31595254e-04
2.06000000e+00	2.32554543e-03	1.15764854e-04
2.06500000e+00	2.32266385e-03	1.10511589e-04
2.07000000e+00	2.32539009e-03	1.04613978e-04
2.07500000e+00	2.31104283e-03	1.01733682e-04
2.08000000e+00	2.31546573e-03	1.01704818e-04
2.08500000e+00	2.30482139e-03	1.00351298e-04
2.09000000e+00	2.27547885e-03	9.62262188e-05
2.09500000e+00	2.27687312e-03	9.50355025e-05
2.10000000e+00	2.29575157e-03	9.53527011e-05
2.10500000e+00	2.27767879e-03	9.41873322e-05
2.11000000e+00	2.24976865e-03	8.96229742e-05
2.11500000e+00	2.23266106e-03	8.80568935e-05
2.12000000e+00	2.25715714e-03	8.85491916e-05
2.12500000e+00	2.20516508e-03	8.63580452e-05
2.13000000e+00	2.21951598e-03	8.32601987e-05
2.13500000e+00	2.18655091e-03	8.11439238e-05
2.14000000e+00	2.17292377e-03	7.99142244e-05
2.14500000e+00	2.17076213e-03	8.00364030e-05
2.15000000e+00	2.14888410e-03	7.66200042e-05
2.15500000e+00	2.14173691e-03	7.64700389e-05
2.16000000e+00	2.13518115e-03	7.58667339e-05
2.16500000e+00	2.11983099e-03	7.58189262e-05
2.17000000e+00	2.11281576e-03	7.37863073e-05
2.17500000e+00	2.11281141e-03	7.39244272e-05
2.18000000e+00	2.08512185e-03	7.32537078e-05
2.18500000e+00	2.08639385e-03	7.36392370e-05
2.19000000e+00	2.07315129e-03	7.29050239e-05
2.19500000e+00	2.05968511e-03	7.21080381e-05
2.20000000e+00	2.05299329e-03	7.20289132e-05
2.20500000e+00	2.04452710e-03	7.20038979e-05
2.21000000e+00	2.03597378e-03	7.20083952e-05
2.21500000e+00	2.01283703e-03	7.03806779e-05
2.22000000e+00	2.00589535e-03	7.00752581e-05
2.22500000e+00	1.99476934e-03	7.03860329e-05
2.23000000e+00	1.98664872e-03	7.04436093e-05
2.23500000e+00	1.96767845e-03	6.87751555e-05
2.24000000e+00	1.95496779e-03	6.84228296e-05
2.24500000e+00	1.93544618e-03	6.81939057e-05
2.25000000e+00	1.92763937e-03	6.83583304e-05
2.25500000e+00	1.91616054e-03	6.68250380e-05
2.26000000e+00	1.90493828e-03	6.66762271e-05
2.26500000e+00	1.89138521e-03	6.64489069e-05
2.27000000e+00	1.88847130e-03	6.72769916e-05
2.27500000e+00	1.87233013e-03	6.53261967e-05
2.28000000e+00	1.84918382e-03	6.45842462e-05
2.28500000e+00	1.84843218e-03	6.50639133e-05
2.29000000e+00	1.82392934e-03	6.44898941e-05
2.29500000e+00	1.82674098e-03	6.44415220e-05
2.30000000e+00	1.80602413e-03	6.30090855e-05
2.30500000e+00	1.80111164e-03	6.30260757e-05
2.31000000e+00	1.79237889e-03	6.31091399e-05
2.31500000e+00	1.77888768e-03	6.31683746e-05
2.32000000e+00	1.77577603e-03	6.17082824e-05
2.32500000e+00	1.74959085e-03	6.13214044e-05
2.33000000e+00	1.75559801e-03	6.16469172e-05
2.33500000e+00	1.73608663e-03	6.16769899e-05
2.34000000e+00	1.72664039e-03	6.02511949e-05
2.34500000e+00	1.71478331e-03	5.98265286e-05
2.35000000e+00	1.69831629e-03	5.95739951e-05
2.35500000e+00	1.70463556e-03	6.04975473e-05
2.36000000e+00	1.68176456e-03	5.89401308e-05
2.36500000e+00	1.68994600e-03	5.91988338e-05
2.37000000e+00	1.67854892e-03	5.87025213e-05
2.37500000e+00	1.66199191e-03	5.86533342e-05
2.38000000e+00	1.67241875e-03	5.93676747e-05
2.38500000e+00	1.64379646e-03	5.74777934e-05
2.39000000e+00	1.65442296e-03	5.80540480e-05
2.39500000e+00	1.64236343e-03	5.78357579e-05
2.40000000e+00	1.62085665e-03	5.79757071e-05
2.40500000e+00	1.62059124e-03	5.68250455e-05
2.41000000e+00	1.61867744e-03	5.69986691e-05
2.41500000e+00	1.59773062e-03	5.62260880e-05
2.42000000e+00	1.61545022e-03	5.76754150e-05
2.42500000e+00	1.63950238e-03	5.84041707e-05
2.43000000e+00	1.65723607e-03	5.84324787e-05
2.43500000e+00	1.59790452e-03	5.65537223e-05
2.44000000e+00	1.55600901e-03	5.51867667e-05
2.44500000e+00	1.54351653e-03	5.54136655e-05
2.45000000e+00	1.53447504e-03	5.41507510e-05
2.45500000e+00	1.51570031e-03	5.36577566e-05
2.46000000e+00	1.51146315e-03	5.37371697e-05
2.46500000e+00	1.52218478e-03	5.47728794e-05
2.47000000e+00	1.50016773e-03	5.34733155e-05
2.47500000e+00	1.48784414e-03	5.26706612e-05
2.48000000e+00	1.47821651e-03	5.28436266e-05
2.48500000e+00	1.47926824e-03	5.28058953e-05
2.49000000e+00	1.44855406e-03	5.24600908e-05
2.49500000e+00	1.44471654e-03	5.13541947e-05
2.50000000e+00	1.44371378e-03	5.14122045e-05
2.50500000e+00	1.43428908e-03	5.13745872e-05
2.51000000e+00	1.42861993e-03	5.15300553e-05
2.51500000e+00	1.40747928e-03	5.08900778e-05
2.52000000e+00	1.39949266e-03	5.01910290e-05
2.52500000e+00	1.40494063e-03	5.05702839e-05
2.53000000e+00	1.39506013e-03	5.07349683e-05
2.53500000e+00	1.38613648e-03	5.09303080e-05
2.54000000e+00	1.37192053e-03	4.96089961e-05
2.54500000e+00	1.37368296e-03	4.98481584e-05
2.55000000e+00	1.36194248e-03	4.96675925e-05
2.55500000e+00	1.36252419e-03	5.01564337e-05
2.56000000e+00	1.34748203e-03	4.97560387e-05
2.56500000e+00	1.35117914e-03	4.94834487e-05
2.57000000e+00	1.33370205e-03	4.90532460e-05
2.57500000e+00	1.33240827e-03	4.91428002e-05
2.58000000e+00	1.32432199e-03	4.96331169e-05
2.58500000e+00	1.31501990e-03	4.89078363e-05
2.59000000e+00	1.29242172e-03	4.78917943e-05
2.59500000e+00	1.30668511e-03	4.86708389e-05
2.60000000e+00	1.29147803e-03	4.84371133e-05
2.60500000e+00	1.29974474e-03	4.98916148e-05
2.61000000e+00	1.27589284e-03	5.58246782e-05
2.61500000e+00	1.27424640e-03	6.16035227e-05
2.62000000e+00	1.27206450e-03	6.77301892e-05
2.62500000e+00	1.27076618e-03	7.32074818e-05
2.63000000e+00	1.22797149e-03	7.79153754e-05
2.63500000e+00	1.26237204e-03	8.89570545e-05
2.64000000e+00	1.25673917e-03	9.75379532e-05
2.64500000e+00	1.28147633e-03	1.05989633e-04
2.65000000e+00	1.26505018e-03	1.11198375e-04
2.65500000e+00	1.27898119e-03	1.21086998e-04
2.66000000e+00	1.26137945e-03	1.27919149e-04
2.66500000e+00	1.23997236e-03	1.40861341e-04
2.67000000e+00	1.21552356e-03	1.49605290e-04
2.67500000e+00	1.19586767e-03	1.72418135e-04
2.68000000e+00	1.22834920e-03	2.05521414e-04
2.68500000e+00	1.18964758e-03	2.64108047e-04
2.69000000e+00	1.24382037e-03	4.46336644e-04
2.69500000e+00	0.00000000e+00	0.00000000e+00
2.70000000e+00	0.00000000e+00	0.00000000e+00
