% Filename : WDL5_p7_00025_00046.h5
% Date & Time : 30-Oct-2025 16:58:06
% X-ray Energy (keV) : 13.30001
% Exposure Time (s) : 0.500
% Photodiode Value : 143661.000
% I0 of Sample : 0
% I0 of Standard : 1
% 
% q(A^-1)   I(q)    I(q)_SE
8.40000000e-01	0.00000000e+00	0.00000000e+00
8.45000000e-01	2.84050155e-03	4.97635483e-04
8.50000000e-01	2.65877663e-03	2.46831660e-04
8.55000000e-01	2.62973348e-03	2.15241848e-04
8.60000000e-01	2.62170709e-03	1.85293128e-04
8.65000000e-01	2.66602129e-03	1.73777240e-04
8.70000000e-01	2.60330032e-03	1.61996725e-04
8.75000000e-01	2.63171000e-03	1.57463229e-04
8.80000000e-01	2.61822279e-03	1.51414147e-04
8.85000000e-01	2.65005759e-03	1.44813935e-04
8.90000000e-01	2.66256190e-03	1.42371115e-04
8.95000000e-01	2.65556175e-03	1.37943531e-04
9.00000000e-01	2.67393536e-03	1.37758041e-04
9.05000000e-01	2.66647893e-03	1.31410664e-04
9.10000000e-01	2.68970185e-03	1.29999665e-04
9.15000000e-01	2.67328225e-03	1.27119303e-04
9.20000000e-01	2.69561376e-03	1.28147187e-04
9.25000000e-01	2.71157780e-03	1.23246224e-04
9.30000000e-01	2.70433956e-03	1.21773003e-04
9.35000000e-01	2.71436129e-03	1.19906554e-04
9.40000000e-01	2.71421935e-03	1.20007781e-04
9.45000000e-01	2.71495099e-03	1.17185468e-04
9.50000000e-01	2.71544454e-03	1.15509910e-04
9.55000000e-01	2.72796876e-03	1.13979315e-04
9.60000000e-01	2.73614949e-03	1.14351493e-04
9.65000000e-01	2.72341774e-03	1.11942209e-04
9.70000000e-01	2.75098893e-03	1.11213062e-04
9.75000000e-01	2.76203423e-03	1.10466558e-04
9.80000000e-01	2.75472401e-03	1.09161999e-04
9.85000000e-01	2.76895849e-03	1.09941492e-04
9.90000000e-01	2.74886854e-03	1.05819505e-04
9.95000000e-01	2.75704942e-03	1.05596881e-04
1.00000000e+00	2.76390519e-03	1.05277140e-04
1.00500000e+00	2.75293001e-03	1.05017363e-04
1.01000000e+00	2.77337471e-03	1.03530229e-04
1.01500000e+00	2.74627807e-03	1.01529777e-04
1.02000000e+00	2.77348560e-03	1.02523114e-04
1.02500000e+00	2.74691635e-03	1.00342522e-04
1.03000000e+00	2.74356564e-03	9.98237675e-05
1.03500000e+00	2.75751495e-03	9.88512751e-05
1.04000000e+00	2.74412815e-03	9.77951819e-05
1.04500000e+00	2.74154604e-03	9.77869968e-05
1.05000000e+00	2.71368155e-03	9.61343372e-05
1.05500000e+00	2.72814895e-03	9.52502977e-05
1.06000000e+00	2.72867271e-03	9.49793142e-05
1.06500000e+00	2.72073646e-03	9.48052955e-05
1.07000000e+00	2.75683603e-03	9.59160479e-05
1.07500000e+00	2.76426523e-03	9.54669791e-05
1.08000000e+00	2.76197042e-03	9.47238898e-05
1.08500000e+00	2.73397617e-03	9.39657517e-05
1.09000000e+00	2.75744082e-03	9.52927792e-05
1.09500000e+00	2.79577050e-03	9.47007843e-05
1.10000000e+00	2.78002450e-03	9.47972730e-05
1.10500000e+00	2.78491805e-03	9.52495086e-05
1.11000000e+00	2.78145528e-03	9.52769094e-05
1.11500000e+00	2.80552611e-03	9.53549912e-05
1.12000000e+00	2.80755370e-03	9.57859022e-05
1.12500000e+00	2.82881894e-03	9.62543166e-05
1.13000000e+00	2.80755660e-03	9.67593525e-05
1.13500000e+00	2.83906971e-03	9.65876628e-05
1.14000000e+00	2.83871149e-03	9.64184294e-05
1.14500000e+00	2.85909263e-03	9.78985921e-05
1.15000000e+00	2.85688547e-03	9.83534770e-05
1.15500000e+00	2.85904359e-03	9.72955411e-05
1.16000000e+00	2.87227282e-03	9.81899566e-05
1.16500000e+00	2.86500830e-03	9.77008544e-05
1.17000000e+00	2.87022486e-03	9.91558636e-05
1.17500000e+00	2.87040431e-03	9.76606151e-05
1.18000000e+00	2.87409970e-03	9.82980336e-05
1.18500000e+00	2.89101981e-03	9.87791640e-05
1.19000000e+00	2.88649919e-03	9.96582014e-05
1.19500000e+00	2.89503276e-03	9.86941963e-05
1.20000000e+00	2.89987752e-03	9.94264881e-05
1.20500000e+00	2.89468055e-03	9.91190466e-05
1.21000000e+00	2.90826227e-03	1.00822795e-04
1.21500000e+00	2.92991365e-03	9.99649382e-05
1.22000000e+00	2.92844162e-03	9.99976600e-05
1.22500000e+00	2.90358166e-03	9.96621671e-05
1.23000000e+00	2.90988729e-03	1.00632343e-04
1.23500000e+00	2.94505018e-03	1.01075371e-04
1.24000000e+00	2.93962935e-03	1.00424088e-04
1.24500000e+00	2.94223712e-03	1.01305116e-04
1.25000000e+00	2.95085962e-03	1.02151250e-04
1.25500000e+00	2.95621794e-03	1.01181944e-04
1.26000000e+00	2.92305884e-03	1.00622057e-04
1.26500000e+00	2.95178892e-03	1.01229403e-04
1.27000000e+00	2.93622902e-03	1.02133946e-04
1.27500000e+00	2.94493042e-03	1.01431986e-04
1.28000000e+00	2.93801556e-03	1.00469447e-04
1.28500000e+00	2.94350004e-03	1.01299873e-04
1.29000000e+00	2.93450953e-03	1.01934853e-04
1.29500000e+00	2.94421000e-03	1.01198221e-04
1.30000000e+00	2.95528905e-03	1.01367848e-04
1.30500000e+00	2.96331964e-03	1.02056343e-04
1.31000000e+00	2.96253489e-03	1.03215528e-04
1.31500000e+00	2.92740028e-03	1.00782120e-04
1.32000000e+00	2.96644182e-03	1.02010759e-04
1.32500000e+00	2.96962384e-03	1.02476826e-04
1.33000000e+00	2.95219732e-03	1.03003373e-04
1.33500000e+00	2.97362178e-03	1.02341338e-04
1.34000000e+00	2.95777662e-03	1.01868787e-04
1.34500000e+00	2.94815864e-03	1.01931622e-04
1.35000000e+00	2.94688100e-03	1.02881466e-04
1.35500000e+00	2.96239816e-03	1.02063342e-04
1.36000000e+00	2.96641375e-03	1.02026081e-04
1.36500000e+00	2.94704460e-03	1.01718430e-04
1.37000000e+00	2.97106029e-03	1.04133527e-04
1.37500000e+00	2.94811833e-03	1.01677618e-04
1.38000000e+00	2.94695525e-03	1.01781760e-04
1.38500000e+00	2.93493690e-03	1.01913552e-04
1.39000000e+00	2.93049928e-03	1.02469899e-04
1.39500000e+00	2.96725212e-03	1.02163354e-04
1.40000000e+00	2.97736170e-03	1.05690478e-04
1.40500000e+00	2.91848092e-03	1.11527819e-04
1.41000000e+00	2.92234210e-03	1.16863299e-04
1.41500000e+00	2.88566748e-03	1.19713249e-04
1.42000000e+00	2.87188912e-03	1.23771494e-04
1.42500000e+00	2.85365678e-03	1.26798601e-04
1.43000000e+00	2.87059292e-03	1.32312909e-04
1.43500000e+00	2.85598721e-03	1.35725472e-04
1.44000000e+00	2.80480690e-03	1.38387501e-04
1.44500000e+00	2.84158783e-03	1.43696336e-04
1.45000000e+00	2.90163065e-03	1.42243547e-04
1.45500000e+00	2.90343024e-03	1.27557135e-04
1.46000000e+00	2.91123187e-03	1.25054717e-04
1.46500000e+00	2.89999622e-03	1.22250396e-04
1.47000000e+00	2.90757417e-03	1.22386650e-04
1.47500000e+00	2.87922501e-03	1.17687500e-04
1.48000000e+00	2.89544287e-03	1.17050968e-04
1.48500000e+00	2.89819276e-03	1.17320235e-04
1.49000000e+00	2.90126022e-03	1.17560623e-04
1.49500000e+00	2.91271981e-03	1.15526830e-04
1.50000000e+00	2.91874885e-03	1.15334256e-04
1.50500000e+00	2.89847929e-03	1.15300881e-04
1.51000000e+00	2.89774380e-03	1.15308994e-04
1.51500000e+00	2.93207842e-03	1.14891221e-04
1.52000000e+00	2.92102377e-03	1.14087138e-04
1.52500000e+00	2.89159552e-03	1.12687386e-04
1.53000000e+00	2.91528381e-03	1.14386905e-04
1.53500000e+00	2.90136789e-03	1.10604988e-04
1.54000000e+00	2.90325756e-03	1.10544336e-04
1.54500000e+00	2.86647092e-03	1.08825713e-04
1.55000000e+00	2.90626183e-03	1.10047795e-04
1.55500000e+00	2.87459613e-03	1.06362435e-04
1.56000000e+00	2.86180752e-03	1.06197966e-04
1.56500000e+00	2.85190344e-03	1.05225299e-04
1.57000000e+00	2.82243443e-03	1.03414629e-04
1.57500000e+00	2.82628735e-03	1.01685040e-04
1.58000000e+00	2.80094778e-03	1.00516604e-04
1.58500000e+00	2.82481943e-03	1.01421247e-04
1.59000000e+00	2.78697420e-03	1.00102341e-04
1.59500000e+00	2.78262975e-03	9.80531948e-05
1.60000000e+00	2.78726944e-03	9.81613297e-05
1.60500000e+00	2.75791089e-03	9.72414425e-05
1.61000000e+00	2.75713979e-03	9.67780058e-05
1.61500000e+00	2.76160410e-03	9.60616900e-05
1.62000000e+00	2.75096742e-03	9.61133610e-05
1.62500000e+00	2.72754533e-03	9.63287065e-05
1.63000000e+00	2.75698161e-03	9.63714413e-05
1.63500000e+00	2.73383200e-03	9.54822013e-05
1.64000000e+00	2.74988173e-03	9.61361500e-05
1.64500000e+00	2.72416795e-03	9.62671166e-05
1.65000000e+00	2.72821665e-03	9.53298718e-05
1.65500000e+00	2.72752839e-03	9.52566091e-05
1.66000000e+00	2.73065541e-03	9.54521601e-05
1.66500000e+00	2.72733505e-03	9.70261051e-05
1.67000000e+00	2.71940591e-03	9.46594031e-05
1.67500000e+00	2.71402780e-03	9.47186075e-05
1.68000000e+00	2.66397578e-03	9.32502891e-05
1.68500000e+00	2.68765342e-03	9.56372707e-05
1.69000000e+00	2.67706101e-03	9.34116170e-05
1.69500000e+00	2.67652234e-03	9.32161326e-05
1.70000000e+00	2.65923361e-03	9.36877314e-05
1.70500000e+00	2.65671421e-03	9.40815502e-05
1.71000000e+00	2.65119131e-03	9.26312310e-05
1.71500000e+00	2.65149754e-03	9.26055359e-05
1.72000000e+00	2.63494261e-03	9.28330181e-05
1.72500000e+00	2.64645017e-03	9.37093971e-05
1.73000000e+00	2.63266006e-03	9.19313883e-05
1.73500000e+00	2.60871769e-03	9.14003493e-05
1.74000000e+00	2.63362366e-03	9.24915850e-05
1.74500000e+00	2.61592607e-03	9.30284823e-05
1.75000000e+00	2.58855830e-03	9.02688867e-05
1.75500000e+00	2.59181762e-03	9.09167913e-05
1.76000000e+00	2.60325496e-03	9.12618109e-05
1.76500000e+00	2.61232892e-03	9.27197039e-05
1.77000000e+00	2.58944193e-03	9.03968691e-05
1.77500000e+00	2.58399677e-03	9.06250242e-05
1.78000000e+00	2.56925576e-03	9.02993975e-05
1.78500000e+00	2.55505339e-03	9.07077350e-05
1.79000000e+00	2.55226921e-03	8.90546389e-05
1.79500000e+00	2.54082563e-03	8.89702100e-05
1.80000000e+00	2.54595700e-03	8.97331896e-05
1.80500000e+00	2.55377066e-03	9.05060719e-05
1.81000000e+00	2.54328865e-03	8.88165369e-05
1.81500000e+00	2.52335771e-03	8.82778946e-05
1.82000000e+00	2.51493327e-03	8.84744911e-05
1.82500000e+00	2.51321743e-03	8.90039509e-05
1.83000000e+00	2.49532636e-03	8.71920067e-05
1.83500000e+00	2.50184908e-03	8.76047542e-05
1.84000000e+00	2.49255544e-03	8.77866729e-05
1.84500000e+00	2.49350943e-03	8.82593981e-05
1.85000000e+00	2.47377774e-03	8.66602817e-05
1.85500000e+00	2.47537551e-03	8.67368937e-05
1.86000000e+00	2.44432506e-03	8.61831657e-05
1.86500000e+00	2.46087471e-03	8.69655477e-05
1.87000000e+00	2.43954319e-03	8.52683670e-05
1.87500000e+00	2.42919557e-03	8.52013200e-05
1.88000000e+00	2.42496485e-03	8.54058006e-05
1.88500000e+00	2.41259066e-03	8.54880833e-05
1.89000000e+00	2.41227896e-03	8.42642372e-05
1.89500000e+00	2.39451343e-03	8.41664545e-05
1.90000000e+00	2.39371334e-03	8.44257717e-05
1.90500000e+00	2.39964208e-03	8.46430476e-05
1.91000000e+00	2.39499347e-03	8.38564673e-05
1.91500000e+00	2.38062516e-03	8.35113093e-05
1.92000000e+00	2.37184587e-03	8.36261865e-05
1.92500000e+00	2.36255140e-03	8.34147530e-05
1.93000000e+00	2.36230067e-03	8.26130734e-05
1.93500000e+00	2.34033039e-03	8.19857594e-05
1.94000000e+00	2.34234557e-03	8.28285741e-05
1.94500000e+00	2.34030578e-03	8.24687146e-05
1.95000000e+00	2.31938271e-03	8.10220595e-05
1.95500000e+00	2.30274265e-03	8.07396761e-05
1.96000000e+00	2.31448138e-03	8.17111782e-05
1.96500000e+00	2.31108572e-03	8.16606410e-05
1.97000000e+00	2.29217125e-03	7.99432082e-05
1.97500000e+00	2.27427374e-03	7.99097855e-05
1.98000000e+00	2.26602881e-03	7.99474021e-05
1.98500000e+00	2.27681181e-03	8.03772976e-05
1.99000000e+00	2.26974743e-03	7.92332320e-05
1.99500000e+00	2.26159410e-03	7.92654115e-05
2.00000000e+00	2.25850981e-03	7.97215222e-05
2.00500000e+00	2.28207691e-03	8.07522533e-05
2.01000000e+00	2.24155024e-03	8.70612605e-05
2.01500000e+00	2.22813924e-03	9.19537610e-05
2.02000000e+00	2.22283319e-03	9.77384894e-05
2.02500000e+00	2.20786613e-03	1.00861468e-04
2.03000000e+00	2.18561022e-03	1.05640663e-04
2.03500000e+00	2.17453944e-03	1.09757756e-04
2.04000000e+00	2.17782770e-03	1.15131292e-04
2.04500000e+00	2.11410554e-03	1.17470937e-04
2.05000000e+00	2.11586094e-03	1.23649344e-04
2.05500000e+00	2.16007222e-03	1.23606884e-04
2.06000000e+00	2.19003098e-03	1.09110239e-04
2.06500000e+00	2.15900932e-03	1.02586581e-04
2.07000000e+00	2.13807605e-03	9.61592096e-05
2.07500000e+00	2.12886760e-03	9.37312527e-05
2.08000000e+00	2.15678076e-03	9.47260833e-05
2.08500000e+00	2.13941073e-03	9.30878370e-05
2.09000000e+00	2.15454421e-03	9.10308110e-05
2.09500000e+00	2.12292132e-03	8.86967472e-05
2.10000000e+00	2.14173272e-03	8.89566502e-05
2.10500000e+00	2.10899943e-03	8.72738102e-05
2.11000000e+00	2.09968614e-03	8.36591579e-05
2.11500000e+00	2.09590088e-03	8.26895542e-05
2.12000000e+00	2.09005651e-03	8.20436121e-05
2.12500000e+00	2.05303617e-03	8.03495132e-05
2.13000000e+00	2.03464269e-03	7.65203013e-05
2.13500000e+00	2.02543896e-03	7.51962241e-05
2.14000000e+00	2.01778624e-03	7.42375169e-05
2.14500000e+00	2.00614315e-03	7.39944209e-05
2.15000000e+00	1.98395123e-03	7.07450881e-05
2.15500000e+00	1.98958484e-03	7.10035460e-05
2.16000000e+00	1.97828328e-03	7.03227456e-05
2.16500000e+00	1.96534291e-03	7.02919195e-05
2.17000000e+00	1.94686015e-03	6.79245249e-05
2.17500000e+00	1.96454580e-03	6.87665590e-05
2.18000000e+00	1.94825857e-03	6.85094181e-05
2.18500000e+00	1.92996988e-03	6.81205879e-05
2.19000000e+00	1.93428022e-03	6.81016539e-05
2.19500000e+00	1.90968661e-03	6.68457775e-05
2.20000000e+00	1.91336732e-03	6.71859145e-05
2.20500000e+00	1.88637941e-03	6.63968346e-05
2.21000000e+00	1.89066405e-03	6.68519458e-05
2.21500000e+00	1.89064926e-03	6.61693434e-05
2.22000000e+00	1.86504609e-03	6.52569396e-05
2.22500000e+00	1.86370287e-03	6.57148354e-05
2.23000000e+00	1.85456000e-03	6.56457911e-05
2.23500000e+00	1.83331978e-03	6.41556246e-05
2.24000000e+00	1.82127927e-03	6.36889920e-05
2.24500000e+00	1.82404369e-03	6.42504778e-05
2.25000000e+00	1.78565170e-03	6.34470657e-05
2.25500000e+00	1.78012406e-03	6.21104519e-05
2.26000000e+00	1.77500116e-03	6.21807060e-05
2.26500000e+00	1.75261395e-03	6.15739838e-05
2.27000000e+00	1.72924466e-03	6.16538669e-05
2.27500000e+00	1.73067369e-03	6.04076689e-05
2.28000000e+00	1.71965859e-03	6.01124883e-05
2.28500000e+00	1.70118191e-03	5.98683548e-05
2.29000000e+00	1.70808544e-03	6.04907918e-05
2.29500000e+00	1.69997390e-03	5.99446015e-05
2.30000000e+00	1.69370051e-03	5.92208610e-05
2.30500000e+00	1.68020255e-03	5.88584506e-05
2.31000000e+00	1.64831779e-03	5.79699803e-05
2.31500000e+00	1.65111581e-03	5.85551351e-05
2.32000000e+00	1.64486990e-03	5.72334866e-05
2.32500000e+00	1.62779315e-03	5.70930750e-05
2.33000000e+00	1.62003022e-03	5.69121284e-05
2.33500000e+00	1.60624892e-03	5.70429080e-05
2.34000000e+00	1.59665802e-03	5.57552834e-05
2.34500000e+00	1.58790984e-03	5.54348169e-05
2.35000000e+00	1.59013930e-03	5.56636941e-05
2.35500000e+00	1.57604058e-03	5.59478481e-05
2.36000000e+00	1.57000282e-03	5.49106956e-05
2.36500000e+00	1.55093131e-03	5.42009665e-05
2.37000000e+00	1.55388379e-03	5.43286832e-05
2.37500000e+00	1.53876260e-03	5.42668281e-05
2.38000000e+00	1.51416172e-03	5.36942895e-05
2.38500000e+00	1.51251897e-03	5.28997022e-05
2.39000000e+00	1.50413834e-03	5.27430248e-05
2.39500000e+00	1.51208621e-03	5.33051763e-05
2.40000000e+00	1.48252357e-03	5.30165583e-05
2.40500000e+00	1.48212097e-03	5.19751901e-05
2.41000000e+00	1.48313645e-03	5.21663812e-05
2.41500000e+00	1.46584108e-03	5.15415559e-05
2.42000000e+00	1.44547711e-03	5.15124891e-05
2.42500000e+00	1.44852431e-03	5.15688308e-05
2.43000000e+00	1.42606081e-03	5.02576852e-05
2.43500000e+00	1.43608953e-03	5.07300356e-05
2.44000000e+00	1.40679802e-03	4.98776255e-05
2.44500000e+00	1.41533312e-03	5.08035350e-05
2.45000000e+00	1.41138781e-03	4.97486874e-05
2.45500000e+00	1.38027078e-03	4.88282260e-05
2.46000000e+00	1.39432355e-03	4.95764583e-05
2.46500000e+00	1.37113217e-03	4.93432982e-05
2.47000000e+00	1.35573398e-03	4.82678646e-05
2.47500000e+00	1.35861398e-03	4.80958724e-05
2.48000000e+00	1.34938765e-03	4.82250937e-05
2.48500000e+00	1.34180428e-03	4.79623772e-05
2.49000000e+00	1.34377294e-03	4.86323315e-05
2.49500000e+00	1.32901029e-03	4.72118788e-05
2.50000000e+00	1.33521764e-03	4.75262091e-05
2.50500000e+00	1.32727015e-03	4.75124039e-05
2.51000000e+00	1.30022942e-03	4.68508042e-05
2.51500000e+00	1.28636235e-03	4.64678748e-05
2.52000000e+00	1.29277484e-03	4.63838716e-05
2.52500000e+00	1.27914916e-03	4.60827414e-05
2.53000000e+00	1.28103067e-03	4.65978143e-05
2.53500000e+00	1.25877994e-03	4.62728733e-05
2.54000000e+00	1.25577008e-03	4.54040659e-05
2.54500000e+00	1.25203131e-03	4.54012837e-05
2.55000000e+00	1.25540911e-03	4.57705459e-05
2.55500000e+00	1.24116774e-03	4.56487934e-05
2.56000000e+00	1.24418492e-03	4.60116609e-05
2.56500000e+00	1.21549242e-03	4.45800043e-05
2.57000000e+00	1.22246455e-03	4.50162851e-05
2.57500000e+00	1.21738375e-03	4.49187332e-05
2.58000000e+00	1.20746426e-03	4.53089111e-05
2.58500000e+00	1.19757030e-03	4.45660815e-05
2.59000000e+00	1.20428811e-03	4.46153127e-05
2.59500000e+00	1.18920375e-03	4.42868022e-05
2.60000000e+00	1.15923693e-03	4.34420128e-05
2.60500000e+00	1.19138638e-03	4.57039582e-05
2.61000000e+00	1.18249216e-03	5.17576796e-05
2.61500000e+00	1.16981311e-03	5.65287407e-05
2.62000000e+00	1.15253339e-03	6.13809394e-05
2.62500000e+00	1.16004765e-03	6.66123928e-05
2.63000000e+00	1.15059499e-03	7.30772399e-05
2.63500000e+00	1.14805799e-03	8.09569440e-05
2.64000000e+00	1.16634833e-03	9.07359397e-05
2.64500000e+00	1.14281505e-03	9.48179711e-05
2.65000000e+00	1.10071309e-03	9.68182545e-05
2.65500000e+00	1.15153223e-03	1.08565454e-04
2.66000000e+00	1.12741369e-03	1.13936867e-04
2.66500000e+00	1.10693254e-03	1.25435404e-04
2.67000000e+00	1.10604351e-03	1.36197119e-04
2.67500000e+00	1.12152234e-03	1.62169236e-04
2.68000000e+00	1.05318419e-03	1.75816744e-04
2.68500000e+00	1.14612008e-03	2.53882593e-04
2.69000000e+00	1.09512881e-03	3.88831267e-04
2.69500000e+00	0.00000000e+00	0.00000000e+00
2.70000000e+00	0.00000000e+00	0.00000000e+00
