% Filename : WDL5_p7_00025_00015.h5
% Date & Time : 30-Oct-2025 16:56:13
% X-ray Energy (keV) : 13.30001
% Exposure Time (s) : 0.500
% Photodiode Value : 141334.000
% I0 of Sample : 0
% I0 of Standard : 1
% 
% q(A^-1)   I(q)    I(q)_SE
8.40000000e-01	0.00000000e+00	0.00000000e+00
8.45000000e-01	2.88968112e-03	5.05647070e-04
8.50000000e-01	2.71538084e-03	2.52389716e-04
8.55000000e-01	2.65833309e-03	2.17249965e-04
8.60000000e-01	2.68666591e-03	1.90160590e-04
8.65000000e-01	2.63598505e-03	1.71937928e-04
8.70000000e-01	2.63996426e-03	1.64225050e-04
8.75000000e-01	2.65863591e-03	1.58807544e-04
8.80000000e-01	2.64183563e-03	1.52713576e-04
8.85000000e-01	2.71614924e-03	1.48357931e-04
8.90000000e-01	2.68194245e-03	1.43480341e-04
8.95000000e-01	2.68404308e-03	1.39533464e-04
9.00000000e-01	2.67816456e-03	1.37961057e-04
9.05000000e-01	2.72428381e-03	1.34295127e-04
9.10000000e-01	2.68437954e-03	1.29690294e-04
9.15000000e-01	2.71809262e-03	1.29223874e-04
9.20000000e-01	2.74739902e-03	1.30598662e-04
9.25000000e-01	2.70663806e-03	1.23042467e-04
9.30000000e-01	2.71744735e-03	1.22215697e-04
9.35000000e-01	2.74161932e-03	1.21033563e-04
9.40000000e-01	2.72674619e-03	1.20671833e-04
9.45000000e-01	2.77012024e-03	1.19557032e-04
9.50000000e-01	2.74213434e-03	1.16726056e-04
9.55000000e-01	2.75640836e-03	1.15199963e-04
9.60000000e-01	2.76890844e-03	1.15765623e-04
9.65000000e-01	2.76043598e-03	1.13441635e-04
9.70000000e-01	2.76487496e-03	1.11836637e-04
9.75000000e-01	2.78969179e-03	1.11504983e-04
9.80000000e-01	2.81050435e-03	1.11517833e-04
9.85000000e-01	2.79764249e-03	1.11052481e-04
9.90000000e-01	2.77864029e-03	1.06874016e-04
9.95000000e-01	2.80136377e-03	1.07330247e-04
1.00000000e+00	2.78098352e-03	1.05984005e-04
1.00500000e+00	2.79173699e-03	1.06371658e-04
1.01000000e+00	2.79213820e-03	1.04171002e-04
1.01500000e+00	2.79353851e-03	1.03298601e-04
1.02000000e+00	2.80563560e-03	1.03649112e-04
1.02500000e+00	2.80331236e-03	1.02345037e-04
1.03000000e+00	2.76276179e-03	1.00496167e-04
1.03500000e+00	2.78600997e-03	9.99557405e-05
1.04000000e+00	2.75239473e-03	9.80823686e-05
1.04500000e+00	2.76066503e-03	9.85095398e-05
1.05000000e+00	2.75518369e-03	9.77017148e-05
1.05500000e+00	2.77652416e-03	9.69236498e-05
1.06000000e+00	2.74799005e-03	9.57316314e-05
1.06500000e+00	2.76515041e-03	9.63391868e-05
1.07000000e+00	2.77059338e-03	9.63649772e-05
1.07500000e+00	2.77111148e-03	9.56662108e-05
1.08000000e+00	2.78571095e-03	9.56186492e-05
1.08500000e+00	2.79274381e-03	9.60783518e-05
1.09000000e+00	2.82017148e-03	9.73753531e-05
1.09500000e+00	2.79891200e-03	9.47573525e-05
1.10000000e+00	2.82405890e-03	9.63068930e-05
1.10500000e+00	2.79707991e-03	9.56453879e-05
1.11000000e+00	2.82575348e-03	9.67349482e-05
1.11500000e+00	2.84620056e-03	9.66528697e-05
1.12000000e+00	2.83150108e-03	9.65899268e-05
1.12500000e+00	2.86592471e-03	9.75019635e-05
1.13000000e+00	2.85931784e-03	9.83905124e-05
1.13500000e+00	2.87613309e-03	9.77305133e-05
1.14000000e+00	2.87741591e-03	9.77040930e-05
1.14500000e+00	2.87417767e-03	9.84375749e-05
1.15000000e+00	2.88869529e-03	9.94259593e-05
1.15500000e+00	2.89810210e-03	9.87149938e-05
1.16000000e+00	2.92348448e-03	9.98669424e-05
1.16500000e+00	2.92366361e-03	9.98019138e-05
1.17000000e+00	2.91462270e-03	1.00704482e-04
1.17500000e+00	2.93457166e-03	9.99037965e-05
1.18000000e+00	2.93319215e-03	1.00268301e-04
1.18500000e+00	2.94384582e-03	1.00569605e-04
1.19000000e+00	2.93396333e-03	1.01377660e-04
1.19500000e+00	2.94577713e-03	1.00376189e-04
1.20000000e+00	2.94892190e-03	1.01117205e-04
1.20500000e+00	2.94854321e-03	1.00873899e-04
1.21000000e+00	2.95885803e-03	1.02548919e-04
1.21500000e+00	2.97448216e-03	1.01533333e-04
1.22000000e+00	2.94534992e-03	1.00556841e-04
1.22500000e+00	2.96273439e-03	1.01598459e-04
1.23000000e+00	2.96087429e-03	1.02299672e-04
1.23500000e+00	2.98376037e-03	1.02494188e-04
1.24000000e+00	2.97756423e-03	1.01724636e-04
1.24500000e+00	2.95999224e-03	1.01950975e-04
1.25000000e+00	2.96848480e-03	1.02737803e-04
1.25500000e+00	2.97382934e-03	1.01708872e-04
1.26000000e+00	2.98149524e-03	1.02599577e-04
1.26500000e+00	2.98360659e-03	1.02216701e-04
1.27000000e+00	2.97125481e-03	1.03402757e-04
1.27500000e+00	3.00703756e-03	1.03569151e-04
1.28000000e+00	2.99090469e-03	1.02358645e-04
1.28500000e+00	2.99520071e-03	1.03080852e-04
1.29000000e+00	2.99255075e-03	1.03920213e-04
1.29500000e+00	3.01709005e-03	1.03610301e-04
1.30000000e+00	2.99851575e-03	1.02917355e-04
1.30500000e+00	2.99234489e-03	1.03049373e-04
1.31000000e+00	2.98460882e-03	1.04083398e-04
1.31500000e+00	2.98746916e-03	1.02892937e-04
1.32000000e+00	2.98184998e-03	1.02588669e-04
1.32500000e+00	3.00130449e-03	1.03533776e-04
1.33000000e+00	3.00375052e-03	1.04751557e-04
1.33500000e+00	3.01606232e-03	1.03756764e-04
1.34000000e+00	3.00933988e-03	1.03657962e-04
1.34500000e+00	2.99628773e-03	1.03663598e-04
1.35000000e+00	2.96885954e-03	1.03661040e-04
1.35500000e+00	3.00706637e-03	1.03576278e-04
1.36000000e+00	3.00126229e-03	1.03184506e-04
1.36500000e+00	2.99376597e-03	1.03276419e-04
1.37000000e+00	2.98546875e-03	1.04512226e-04
1.37500000e+00	3.01564430e-03	1.04011773e-04
1.38000000e+00	2.98419281e-03	1.03119451e-04
1.38500000e+00	2.98305264e-03	1.03543567e-04
1.39000000e+00	2.98841113e-03	1.04577248e-04
1.39500000e+00	2.98878032e-03	1.02926385e-04
1.40000000e+00	3.04013158e-03	1.07904737e-04
1.40500000e+00	2.97407223e-03	1.13582662e-04
1.41000000e+00	2.97157632e-03	1.18737658e-04
1.41500000e+00	2.94628548e-03	1.22065294e-04
1.42000000e+00	2.96369594e-03	1.27910405e-04
1.42500000e+00	2.94878229e-03	1.30974217e-04
1.43000000e+00	2.93114319e-03	1.34953150e-04
1.43500000e+00	2.89502241e-03	1.37522532e-04
1.44000000e+00	2.90337922e-03	1.43249477e-04
1.44500000e+00	2.86762737e-03	1.45334659e-04
1.45000000e+00	2.96143368e-03	1.44935914e-04
1.45500000e+00	2.97911232e-03	1.31080629e-04
1.46000000e+00	2.97184492e-03	1.27699538e-04
1.46500000e+00	2.97177921e-03	1.25379906e-04
1.47000000e+00	2.96388195e-03	1.24760011e-04
1.47500000e+00	2.95052713e-03	1.20617798e-04
1.48000000e+00	2.94512280e-03	1.19038761e-04
1.48500000e+00	2.94320232e-03	1.19045866e-04
1.49000000e+00	2.94019817e-03	1.19247407e-04
1.49500000e+00	2.94838094e-03	1.16992190e-04
1.50000000e+00	2.95799078e-03	1.16898180e-04
1.50500000e+00	2.96953899e-03	1.17892707e-04
1.51000000e+00	2.97517575e-03	1.18530288e-04
1.51500000e+00	2.94863338e-03	1.15437834e-04
1.52000000e+00	2.98625519e-03	1.16586030e-04
1.52500000e+00	2.96696238e-03	1.15629973e-04
1.53000000e+00	2.98574316e-03	1.17095748e-04
1.53500000e+00	2.95567204e-03	1.12660346e-04
1.54000000e+00	2.95790482e-03	1.12586604e-04
1.54500000e+00	2.94236550e-03	1.11714565e-04
1.55000000e+00	2.95390986e-03	1.11837981e-04
1.55500000e+00	2.92147600e-03	1.08104448e-04
1.56000000e+00	2.93758717e-03	1.08925120e-04
1.56500000e+00	2.91036462e-03	1.07435444e-04
1.57000000e+00	2.87668140e-03	1.05436398e-04
1.57500000e+00	2.89460895e-03	1.04159712e-04
1.58000000e+00	2.86215281e-03	1.02709333e-04
1.58500000e+00	2.89089298e-03	1.03772615e-04
1.59000000e+00	2.86445940e-03	1.02949124e-04
1.59500000e+00	2.87145000e-03	1.01136908e-04
1.60000000e+00	2.86087718e-03	1.00762856e-04
1.60500000e+00	2.85881805e-03	1.00805926e-04
1.61000000e+00	2.85325518e-03	1.00100206e-04
1.61500000e+00	2.84109863e-03	9.87812874e-05
1.62000000e+00	2.83966943e-03	9.91760564e-05
1.62500000e+00	2.82906536e-03	9.99982356e-05
1.63000000e+00	2.82610678e-03	9.88091738e-05
1.63500000e+00	2.81816086e-03	9.84976796e-05
1.64000000e+00	2.79430053e-03	9.76722065e-05
1.64500000e+00	2.80032965e-03	9.89839961e-05
1.65000000e+00	2.77621125e-03	9.70356798e-05
1.65500000e+00	2.77862630e-03	9.70857377e-05
1.66000000e+00	2.75156672e-03	9.61974189e-05
1.66500000e+00	2.74495049e-03	9.75280742e-05
1.67000000e+00	2.76291989e-03	9.61776661e-05
1.67500000e+00	2.73976246e-03	9.56488491e-05
1.68000000e+00	2.73352401e-03	9.56433003e-05
1.68500000e+00	2.71174429e-03	9.65265704e-05
1.69000000e+00	2.74050436e-03	9.56697939e-05
1.69500000e+00	2.71871732e-03	9.47435280e-05
1.70000000e+00	2.72168706e-03	9.59240281e-05
1.70500000e+00	2.70737528e-03	9.58349817e-05
1.71000000e+00	2.69994285e-03	9.43674740e-05
1.71500000e+00	2.69438515e-03	9.41306869e-05
1.72000000e+00	2.67633035e-03	9.42485953e-05
1.72500000e+00	2.67330577e-03	9.46505307e-05
1.73000000e+00	2.67598213e-03	9.34634000e-05
1.73500000e+00	2.67268668e-03	9.36582892e-05
1.74000000e+00	2.66511051e-03	9.36696414e-05
1.74500000e+00	2.64442589e-03	9.40079396e-05
1.75000000e+00	2.62112979e-03	9.13995522e-05
1.75500000e+00	2.64263482e-03	9.27215060e-05
1.76000000e+00	2.62676613e-03	9.21494670e-05
1.76500000e+00	2.62325980e-03	9.31816312e-05
1.77000000e+00	2.60275266e-03	9.09557326e-05
1.77500000e+00	2.61115520e-03	9.15058174e-05
1.78000000e+00	2.58483483e-03	9.08147398e-05
1.78500000e+00	2.56192937e-03	9.09203035e-05
1.79000000e+00	2.59735069e-03	9.06345236e-05
1.79500000e+00	2.58774859e-03	9.06204230e-05
1.80000000e+00	2.58060047e-03	9.08832734e-05
1.80500000e+00	2.56827759e-03	9.10680829e-05
1.81000000e+00	2.55953691e-03	8.94071203e-05
1.81500000e+00	2.54829160e-03	8.90327372e-05
1.82000000e+00	2.53898193e-03	8.93337474e-05
1.82500000e+00	2.52950110e-03	8.95853199e-05
1.83000000e+00	2.53169601e-03	8.85175813e-05
1.83500000e+00	2.52635459e-03	8.84704283e-05
1.84000000e+00	2.51909318e-03	8.87158168e-05
1.84500000e+00	2.51618275e-03	8.91177839e-05
1.85000000e+00	2.50460297e-03	8.76567452e-05
1.85500000e+00	2.50991349e-03	8.79274817e-05
1.86000000e+00	2.49140153e-03	8.78236430e-05
1.86500000e+00	2.50304068e-03	8.84681280e-05
1.87000000e+00	2.48014625e-03	8.67674050e-05
1.87500000e+00	2.48393067e-03	8.71166550e-05
1.88000000e+00	2.47800867e-03	8.72402889e-05
1.88500000e+00	2.46136582e-03	8.72521173e-05
1.89000000e+00	2.46195665e-03	8.60223333e-05
1.89500000e+00	2.42596320e-03	8.51681086e-05
1.90000000e+00	2.41131842e-03	8.49603952e-05
1.90500000e+00	2.43853250e-03	8.59995511e-05
1.91000000e+00	2.41161554e-03	8.44425078e-05
1.91500000e+00	2.41096614e-03	8.45257196e-05
1.92000000e+00	2.41033811e-03	8.49810473e-05
1.92500000e+00	2.40325870e-03	8.47973907e-05
1.93000000e+00	2.39962387e-03	8.39106172e-05
1.93500000e+00	2.37537873e-03	8.33776410e-05
1.94000000e+00	2.38743507e-03	8.43870198e-05
1.94500000e+00	2.36301233e-03	8.32595023e-05
1.95000000e+00	2.35629213e-03	8.23182895e-05
1.95500000e+00	2.35171445e-03	8.24821954e-05
1.96000000e+00	2.32785459e-03	8.21916391e-05
1.96500000e+00	2.33095787e-03	8.23198586e-05
1.97000000e+00	2.32139694e-03	8.10367676e-05
1.97500000e+00	2.32066751e-03	8.15769759e-05
1.98000000e+00	2.32813140e-03	8.21623976e-05
1.98500000e+00	2.30771940e-03	8.15540388e-05
1.99000000e+00	2.29031318e-03	7.99469470e-05
1.99500000e+00	2.27739102e-03	7.99065915e-05
2.00000000e+00	2.30630169e-03	8.13980814e-05
2.00500000e+00	2.30105727e-03	8.14271992e-05
2.01000000e+00	2.27665987e-03	8.84165824e-05
2.01500000e+00	2.26641008e-03	9.34504745e-05
2.02000000e+00	2.23824267e-03	9.84620839e-05
2.02500000e+00	2.21522724e-03	1.01195011e-04
2.03000000e+00	2.20491790e-03	1.06562705e-04
2.03500000e+00	2.21019624e-03	1.11790280e-04
2.04000000e+00	2.16830688e-03	1.14610170e-04
2.04500000e+00	2.18059130e-03	1.21160386e-04
2.05000000e+00	2.15675047e-03	1.26018390e-04
2.05500000e+00	2.15441766e-03	1.23318652e-04
2.06000000e+00	2.19496668e-03	1.09231672e-04
2.06500000e+00	2.16895265e-03	1.03222695e-04
2.07000000e+00	2.17874980e-03	9.80778028e-05
2.07500000e+00	2.17294640e-03	9.56845734e-05
2.08000000e+00	2.19262094e-03	9.63817634e-05
2.08500000e+00	2.16970569e-03	9.43531971e-05
2.09000000e+00	2.15245387e-03	9.09222123e-05
2.09500000e+00	2.14958707e-03	8.98508132e-05
2.10000000e+00	2.15857483e-03	8.95588256e-05
2.10500000e+00	2.14639090e-03	8.87453782e-05
2.11000000e+00	2.15514939e-03	8.58946784e-05
2.11500000e+00	2.13548988e-03	8.42488055e-05
2.12000000e+00	2.09634851e-03	8.23585462e-05
2.12500000e+00	2.07346286e-03	8.11616211e-05
2.13000000e+00	2.06863540e-03	7.77264082e-05
2.13500000e+00	2.06213817e-03	7.64540046e-05
2.14000000e+00	2.04580284e-03	7.51830346e-05
2.14500000e+00	2.03071654e-03	7.48435530e-05
2.15000000e+00	2.01571127e-03	7.18366373e-05
2.15500000e+00	2.02376143e-03	7.22825921e-05
2.16000000e+00	2.02011992e-03	7.17858399e-05
2.16500000e+00	2.01987933e-03	7.22646237e-05
2.17000000e+00	2.00907538e-03	7.02076719e-05
2.17500000e+00	1.97194865e-03	6.90182221e-05
2.18000000e+00	1.97289534e-03	6.93080584e-05
2.18500000e+00	1.94744086e-03	6.87611354e-05
2.19000000e+00	1.94998686e-03	6.86994689e-05
2.19500000e+00	1.95303920e-03	6.84531482e-05
2.20000000e+00	1.93655896e-03	6.79676289e-05
2.20500000e+00	1.93629820e-03	6.82471383e-05
2.21000000e+00	1.91083811e-03	6.76144334e-05
2.21500000e+00	1.90034889e-03	6.65640119e-05
2.22000000e+00	1.89922507e-03	6.64237324e-05
2.22500000e+00	1.87853038e-03	6.62185590e-05
2.23000000e+00	1.88291380e-03	6.67090824e-05
2.23500000e+00	1.85000001e-03	6.46640580e-05
2.24000000e+00	1.84939680e-03	6.46858991e-05
2.24500000e+00	1.82627818e-03	6.43378453e-05
2.25000000e+00	1.82130655e-03	6.47327137e-05
2.25500000e+00	1.82968253e-03	6.38918528e-05
2.26000000e+00	1.78490076e-03	6.25484794e-05
2.26500000e+00	1.79364716e-03	6.30279924e-05
2.27000000e+00	1.77604932e-03	6.33253802e-05
2.27500000e+00	1.75657131e-03	6.13393708e-05
2.28000000e+00	1.74150023e-03	6.08127409e-05
2.28500000e+00	1.73124435e-03	6.09231213e-05
2.29000000e+00	1.72879515e-03	6.11839602e-05
2.29500000e+00	1.72212522e-03	6.07314477e-05
2.30000000e+00	1.69481733e-03	5.92621135e-05
2.30500000e+00	1.69959875e-03	5.95632832e-05
2.31000000e+00	1.68734861e-03	5.94539662e-05
2.31500000e+00	1.66969834e-03	5.92622464e-05
2.32000000e+00	1.65606992e-03	5.75467517e-05
2.32500000e+00	1.66476556e-03	5.84328456e-05
2.33000000e+00	1.63636228e-03	5.74945293e-05
2.33500000e+00	1.63388935e-03	5.80669172e-05
2.34000000e+00	1.62597975e-03	5.67478609e-05
2.34500000e+00	1.61239263e-03	5.62813962e-05
2.35000000e+00	1.61118066e-03	5.64294390e-05
2.35500000e+00	1.57970603e-03	5.60765775e-05
2.36000000e+00	1.59270111e-03	5.57835358e-05
2.36500000e+00	1.58244371e-03	5.53539302e-05
2.37000000e+00	1.55912735e-03	5.46188054e-05
2.37500000e+00	1.57515067e-03	5.55476491e-05
2.38000000e+00	1.55388235e-03	5.50767773e-05
2.38500000e+00	1.53286490e-03	5.36178582e-05
2.39000000e+00	1.52494734e-03	5.34426567e-05
2.39500000e+00	1.53544696e-03	5.41373450e-05
2.40000000e+00	1.49670044e-03	5.35131616e-05
2.40500000e+00	1.49668062e-03	5.24267179e-05
2.41000000e+00	1.50909798e-03	5.31233939e-05
2.41500000e+00	1.50794900e-03	5.30477624e-05
2.42000000e+00	1.48677004e-03	5.31134374e-05
2.42500000e+00	1.47834982e-03	5.25255411e-05
2.43000000e+00	1.49013927e-03	5.25501206e-05
2.43500000e+00	1.46157038e-03	5.16579190e-05
2.44000000e+00	1.44563003e-03	5.12359616e-05
2.44500000e+00	1.43642268e-03	5.16295998e-05
2.45000000e+00	1.41969425e-03	5.01413857e-05
2.45500000e+00	1.40756706e-03	4.98620346e-05
2.46000000e+00	1.40492057e-03	4.98884902e-05
2.46500000e+00	1.38125803e-03	4.96403930e-05
2.47000000e+00	1.40106345e-03	4.99704515e-05
2.47500000e+00	1.39028996e-03	4.92647470e-05
2.48000000e+00	1.36385213e-03	4.87090867e-05
2.48500000e+00	1.36025625e-03	4.86755397e-05
2.49000000e+00	1.34626163e-03	4.87751740e-05
2.49500000e+00	1.37197339e-03	4.87137935e-05
2.50000000e+00	1.34164127e-03	4.77314755e-05
2.50500000e+00	1.32115451e-03	4.73431541e-05
2.51000000e+00	1.32681241e-03	4.78510011e-05
2.51500000e+00	1.30382215e-03	4.71469057e-05
2.52000000e+00	1.29798365e-03	4.64645015e-05
2.52500000e+00	1.29924536e-03	4.67557379e-05
2.53000000e+00	1.29646388e-03	4.70912736e-05
2.53500000e+00	1.28564634e-03	4.73146885e-05
2.54000000e+00	1.27912138e-03	4.61665634e-05
2.54500000e+00	1.27021962e-03	4.61301001e-05
2.55000000e+00	1.26046495e-03	4.60243755e-05
2.55500000e+00	1.26938867e-03	4.66832735e-05
2.56000000e+00	1.24708755e-03	4.61549381e-05
2.56500000e+00	1.23722473e-03	4.53282461e-05
2.57000000e+00	1.24679839e-03	4.58329157e-05
2.57500000e+00	1.23227785e-03	4.55497508e-05
2.58000000e+00	1.21778982e-03	4.56159726e-05
2.58500000e+00	1.21182799e-03	4.51731227e-05
2.59000000e+00	1.20433596e-03	4.46826479e-05
2.59500000e+00	1.20643381e-03	4.48724874e-05
2.60000000e+00	1.20304754e-03	4.51275532e-05
2.60500000e+00	1.20161252e-03	4.60967048e-05
2.61000000e+00	1.20566216e-03	5.26646916e-05
2.61500000e+00	1.18805525e-03	5.75447349e-05
2.62000000e+00	1.16658101e-03	6.20855049e-05
2.62500000e+00	1.16150536e-03	6.67527030e-05
2.63000000e+00	1.18142381e-03	7.49698855e-05
2.63500000e+00	1.18734017e-03	8.39206401e-05
2.64000000e+00	1.17027491e-03	9.08749520e-05
2.64500000e+00	1.12802525e-03	9.39771595e-05
2.65000000e+00	1.14108828e-03	1.00679997e-04
2.65500000e+00	1.12250219e-03	1.05589308e-04
2.66000000e+00	1.10423308e-03	1.12388796e-04
2.66500000e+00	1.10623995e-03	1.25322984e-04
2.67000000e+00	1.16872595e-03	1.44169351e-04
2.67500000e+00	1.14716839e-03	1.65163430e-04
2.68000000e+00	1.19767819e-03	2.00467011e-04
2.68500000e+00	1.22010123e-03	2.69808116e-04
2.69000000e+00	1.15810566e-03	4.17177425e-04
2.69500000e+00	0.00000000e+00	0.00000000e+00
2.70000000e+00	0.00000000e+00	0.00000000e+00
