% Filename : WDL5_p7_00025_00028.h5
% Date & Time : 30-Oct-2025 16:57:01
% X-ray Energy (keV) : 13.30001
% Exposure Time (s) : 0.500
% Photodiode Value : 140751.000
% I0 of Sample : 0
% I0 of Standard : 1
% 
% q(A^-1)   I(q)    I(q)_SE
8.40000000e-01	0.00000000e+00	0.00000000e+00
8.45000000e-01	3.62615373e-03	6.36644569e-04
8.50000000e-01	3.32051792e-03	3.07332583e-04
8.55000000e-01	3.33446113e-03	2.72040560e-04
8.60000000e-01	3.33412846e-03	2.35270833e-04
8.65000000e-01	3.31405948e-03	2.15665623e-04
8.70000000e-01	3.33448341e-03	2.06920805e-04
8.75000000e-01	3.33118590e-03	1.98822854e-04
8.80000000e-01	3.39980173e-03	1.96144081e-04
8.85000000e-01	3.39504051e-03	1.85281350e-04
8.90000000e-01	3.37286313e-03	1.80134074e-04
8.95000000e-01	3.35654494e-03	1.74288139e-04
9.00000000e-01	3.39679253e-03	1.74556862e-04
9.05000000e-01	3.42848190e-03	1.68477555e-04
9.10000000e-01	3.41310802e-03	1.64566192e-04
9.15000000e-01	3.39827077e-03	1.61401582e-04
9.20000000e-01	3.39927740e-03	1.61243180e-04
9.25000000e-01	3.44939691e-03	1.56386653e-04
9.30000000e-01	3.46307663e-03	1.55466839e-04
9.35000000e-01	3.46146993e-03	1.52527309e-04
9.40000000e-01	3.47311407e-03	1.53403840e-04
9.45000000e-01	3.51429285e-03	1.51274984e-04
9.50000000e-01	3.48451365e-03	1.47849315e-04
9.55000000e-01	3.50537939e-03	1.46125301e-04
9.60000000e-01	3.53682146e-03	1.47543673e-04
9.65000000e-01	3.53343812e-03	1.44978970e-04
9.70000000e-01	3.55183416e-03	1.43371310e-04
9.75000000e-01	3.54154499e-03	1.41400942e-04
9.80000000e-01	3.54561659e-03	1.40328242e-04
9.85000000e-01	3.57945096e-03	1.41689167e-04
9.90000000e-01	3.61192751e-03	1.38652611e-04
9.95000000e-01	3.60002153e-03	1.37580473e-04
1.00000000e+00	3.61576257e-03	1.37439216e-04
1.00500000e+00	3.58669674e-03	1.36472412e-04
1.01000000e+00	3.63299253e-03	1.35250267e-04
1.01500000e+00	3.62455462e-03	1.33605565e-04
1.02000000e+00	3.66893635e-03	1.35149105e-04
1.02500000e+00	3.64712815e-03	1.32579266e-04
1.03000000e+00	3.66091112e-03	1.32621204e-04
1.03500000e+00	3.65603919e-03	1.30553281e-04
1.04000000e+00	3.65884289e-03	1.29860058e-04
1.04500000e+00	3.68081801e-03	1.30765641e-04
1.05000000e+00	3.65412791e-03	1.28829130e-04
1.05500000e+00	3.66806230e-03	1.27252692e-04
1.06000000e+00	3.68197105e-03	1.27413452e-04
1.06500000e+00	3.68474427e-03	1.27645626e-04
1.07000000e+00	3.68923445e-03	1.27454451e-04
1.07500000e+00	3.71207396e-03	1.27492556e-04
1.08000000e+00	3.73738012e-03	1.27555675e-04
1.08500000e+00	3.75529232e-03	1.28201266e-04
1.09000000e+00	3.78520530e-03	1.29943735e-04
1.09500000e+00	3.76542076e-03	1.26790962e-04
1.10000000e+00	3.77463784e-03	1.27892298e-04
1.10500000e+00	3.81493773e-03	1.29702869e-04
1.11000000e+00	3.82738281e-03	1.30364132e-04
1.11500000e+00	3.86556152e-03	1.30628798e-04
1.12000000e+00	3.89839628e-03	1.32329132e-04
1.12500000e+00	3.86392861e-03	1.30781891e-04
1.13000000e+00	3.89646289e-03	1.33541318e-04
1.13500000e+00	3.93058975e-03	1.33056013e-04
1.14000000e+00	3.94068310e-03	1.33139213e-04
1.14500000e+00	3.94439381e-03	1.34348378e-04
1.15000000e+00	3.96560530e-03	1.35779807e-04
1.15500000e+00	3.99834946e-03	1.35515721e-04
1.16000000e+00	3.98320544e-03	1.35472808e-04
1.16500000e+00	4.02292211e-03	1.36607117e-04
1.17000000e+00	4.02676979e-03	1.38488278e-04
1.17500000e+00	4.04405652e-03	1.37175034e-04
1.18000000e+00	4.06380817e-03	1.38354920e-04
1.18500000e+00	4.06539586e-03	1.38236022e-04
1.19000000e+00	4.09799620e-03	1.40862275e-04
1.19500000e+00	4.10064065e-03	1.39250499e-04
1.20000000e+00	4.13151379e-03	1.41087523e-04
1.20500000e+00	4.12280163e-03	1.40509433e-04
1.21000000e+00	4.10088743e-03	1.41546296e-04
1.21500000e+00	4.15252581e-03	1.41140228e-04
1.22000000e+00	4.15699955e-03	1.41468670e-04
1.22500000e+00	4.17805945e-03	1.42714880e-04
1.23000000e+00	4.17080292e-03	1.43563309e-04
1.23500000e+00	4.19871568e-03	1.43579055e-04
1.24000000e+00	4.17721092e-03	1.42236096e-04
1.24500000e+00	4.19327594e-03	1.43761543e-04
1.25000000e+00	4.21449032e-03	1.45328834e-04
1.25500000e+00	4.21967146e-03	1.43848758e-04
1.26000000e+00	4.21525369e-03	1.44505219e-04
1.26500000e+00	4.24539069e-03	1.45016712e-04
1.27000000e+00	4.26526454e-03	1.47884596e-04
1.27500000e+00	4.26282750e-03	1.46428960e-04
1.28000000e+00	4.25742661e-03	1.45218975e-04
1.28500000e+00	4.26810557e-03	1.46377258e-04
1.29000000e+00	4.26087389e-03	1.47459597e-04
1.29500000e+00	4.30354683e-03	1.47342670e-04
1.30000000e+00	4.28049321e-03	1.46301336e-04
1.30500000e+00	4.29863407e-03	1.47542987e-04
1.31000000e+00	4.33983066e-03	1.50787196e-04
1.31500000e+00	4.31780434e-03	1.48090246e-04
1.32000000e+00	4.29582263e-03	1.47293560e-04
1.32500000e+00	4.34133817e-03	1.49224694e-04
1.33000000e+00	4.36842686e-03	1.51963733e-04
1.33500000e+00	4.34303960e-03	1.49042111e-04
1.34000000e+00	4.38870234e-03	1.50750361e-04
1.34500000e+00	4.35876075e-03	1.50277336e-04
1.35000000e+00	4.37889011e-03	1.52434415e-04
1.35500000e+00	4.38079281e-03	1.50389226e-04
1.36000000e+00	4.41473506e-03	1.51255300e-04
1.36500000e+00	4.37862414e-03	1.50546033e-04
1.37000000e+00	4.36947387e-03	1.52531292e-04
1.37500000e+00	4.40130180e-03	1.51204154e-04
1.38000000e+00	4.41550797e-03	1.52107300e-04
1.38500000e+00	4.45081218e-03	1.54109355e-04
1.39000000e+00	4.44910426e-03	1.55024657e-04
1.39500000e+00	4.45488139e-03	1.52967053e-04
1.40000000e+00	4.51685490e-03	1.59771714e-04
1.40500000e+00	4.48916173e-03	1.70976264e-04
1.41000000e+00	4.51202445e-03	1.79755560e-04
1.41500000e+00	4.45882897e-03	1.84148389e-04
1.42000000e+00	4.41460841e-03	1.89727274e-04
1.42500000e+00	4.49013199e-03	1.98673340e-04
1.43000000e+00	4.45307917e-03	2.04471583e-04
1.43500000e+00	4.45191488e-03	2.10667112e-04
1.44000000e+00	4.42194088e-03	2.17466693e-04
1.44500000e+00	4.40023441e-03	2.21942465e-04
1.45000000e+00	4.53180723e-03	2.21141384e-04
1.45500000e+00	4.54535414e-03	1.98929030e-04
1.46000000e+00	4.53713675e-03	1.94186896e-04
1.46500000e+00	4.52430548e-03	1.90157956e-04
1.47000000e+00	4.52217859e-03	1.89813082e-04
1.47500000e+00	4.47355049e-03	1.82182937e-04
1.48000000e+00	4.45106804e-03	1.79273931e-04
1.48500000e+00	4.47697530e-03	1.80521018e-04
1.49000000e+00	4.47375863e-03	1.80699769e-04
1.49500000e+00	4.47298040e-03	1.76859485e-04
1.50000000e+00	4.47840427e-03	1.76525743e-04
1.50500000e+00	4.51130298e-03	1.78672876e-04
1.51000000e+00	4.57013552e-03	1.81411167e-04
1.51500000e+00	4.55535953e-03	1.78006124e-04
1.52000000e+00	4.58160311e-03	1.78340089e-04
1.52500000e+00	4.52450516e-03	1.76007665e-04
1.53000000e+00	4.46589592e-03	1.74691984e-04
1.53500000e+00	4.46815718e-03	1.69940236e-04
1.54000000e+00	4.42378104e-03	1.67889050e-04
1.54500000e+00	4.38547597e-03	1.66148405e-04
1.55000000e+00	4.34517173e-03	1.64144680e-04
1.55500000e+00	4.35231899e-03	1.60686389e-04
1.56000000e+00	4.34309717e-03	1.60702365e-04
1.56500000e+00	4.30132761e-03	1.58383872e-04
1.57000000e+00	4.28962368e-03	1.56691244e-04
1.57500000e+00	4.28567100e-03	1.53728809e-04
1.58000000e+00	4.27067469e-03	1.52899596e-04
1.58500000e+00	4.24843871e-03	1.52156492e-04
1.59000000e+00	4.22028978e-03	1.51239350e-04
1.59500000e+00	4.23360683e-03	1.48739832e-04
1.60000000e+00	4.23041473e-03	1.48605369e-04
1.60500000e+00	4.21612817e-03	1.48132623e-04
1.61000000e+00	4.22066952e-03	1.47670231e-04
1.61500000e+00	4.20526142e-03	1.45755173e-04
1.62000000e+00	4.18264628e-03	1.45682310e-04
1.62500000e+00	4.16854002e-03	1.46848698e-04
1.63000000e+00	4.15279590e-03	1.44673929e-04
1.63500000e+00	4.14513200e-03	1.44466039e-04
1.64000000e+00	4.13723140e-03	1.44250101e-04
1.64500000e+00	4.13092805e-03	1.45614156e-04
1.65000000e+00	4.10572877e-03	1.43152830e-04
1.65500000e+00	4.11028633e-03	1.43134600e-04
1.66000000e+00	4.12239205e-03	1.43763321e-04
1.66500000e+00	4.07137390e-03	1.44384138e-04
1.67000000e+00	4.08322678e-03	1.41747113e-04
1.67500000e+00	4.09786552e-03	1.42610561e-04
1.68000000e+00	4.08193073e-03	1.42489619e-04
1.68500000e+00	4.05272779e-03	1.43887090e-04
1.69000000e+00	4.06843007e-03	1.41573503e-04
1.69500000e+00	4.04543656e-03	1.40557996e-04
1.70000000e+00	4.03417028e-03	1.41783960e-04
1.70500000e+00	3.99029962e-03	1.40866050e-04
1.71000000e+00	3.98418020e-03	1.38857204e-04
1.71500000e+00	3.99937770e-03	1.39340354e-04
1.72000000e+00	3.98191526e-03	1.39823134e-04
1.72500000e+00	3.94494202e-03	1.39417425e-04
1.73000000e+00	3.96367571e-03	1.38150024e-04
1.73500000e+00	3.92192866e-03	1.37061058e-04
1.74000000e+00	3.92355179e-03	1.37517899e-04
1.74500000e+00	3.94398429e-03	1.39824855e-04
1.75000000e+00	3.90433255e-03	1.35733677e-04
1.75500000e+00	3.91783994e-03	1.37066774e-04
1.76000000e+00	3.89962995e-03	1.36397839e-04
1.76500000e+00	3.89329268e-03	1.37955400e-04
1.77000000e+00	3.88849830e-03	1.35441536e-04
1.77500000e+00	3.85787645e-03	1.34847296e-04
1.78000000e+00	3.88723961e-03	1.36238084e-04
1.78500000e+00	3.85383678e-03	1.36458701e-04
1.79000000e+00	3.83127829e-03	1.33355068e-04
1.79500000e+00	3.86147796e-03	1.34809568e-04
1.80000000e+00	3.83923070e-03	1.34930606e-04
1.80500000e+00	3.82774571e-03	1.35278585e-04
1.81000000e+00	3.84240879e-03	1.33879946e-04
1.81500000e+00	3.81918489e-03	1.33119902e-04
1.82000000e+00	3.79503121e-03	1.33161014e-04
1.82500000e+00	3.79044938e-03	1.33813050e-04
1.83000000e+00	3.78325726e-03	1.31969727e-04
1.83500000e+00	3.77832975e-03	1.31934206e-04
1.84000000e+00	3.79365049e-03	1.33216755e-04
1.84500000e+00	3.79695442e-03	1.34072718e-04
1.85000000e+00	3.76363689e-03	1.31396040e-04
1.85500000e+00	3.73133569e-03	1.30414316e-04
1.86000000e+00	3.73374868e-03	1.31315233e-04
1.86500000e+00	3.75849962e-03	1.32406454e-04
1.87000000e+00	3.72009972e-03	1.29712814e-04
1.87500000e+00	3.70108127e-03	1.29447306e-04
1.88000000e+00	3.69051362e-03	1.29635057e-04
1.88500000e+00	3.65761233e-03	1.29267752e-04
1.89000000e+00	3.66678687e-03	1.27781362e-04
1.89500000e+00	3.65145968e-03	1.27975270e-04
1.90000000e+00	3.62580962e-03	1.27369189e-04
1.90500000e+00	3.61337450e-03	1.27117276e-04
1.91000000e+00	3.58523043e-03	1.25272870e-04
1.91500000e+00	3.56584786e-03	1.24660223e-04
1.92000000e+00	3.55825874e-03	1.25118813e-04
1.92500000e+00	3.52409517e-03	1.24040811e-04
1.93000000e+00	3.52182321e-03	1.22837275e-04
1.93500000e+00	3.50562387e-03	1.22619432e-04
1.94000000e+00	3.51195724e-03	1.23815248e-04
1.94500000e+00	3.45141484e-03	1.21379450e-04
1.95000000e+00	3.46264813e-03	1.20594873e-04
1.95500000e+00	3.46212942e-03	1.21127983e-04
1.96000000e+00	3.45116356e-03	1.21513065e-04
1.96500000e+00	3.42277795e-03	1.20613728e-04
1.97000000e+00	3.38648601e-03	1.17862910e-04
1.97500000e+00	3.40809408e-03	1.19373218e-04
1.98000000e+00	3.39146766e-03	1.19292650e-04
1.98500000e+00	3.37264690e-03	1.18925015e-04
1.99000000e+00	3.35037014e-03	1.16640707e-04
1.99500000e+00	3.37098729e-03	1.17821259e-04
2.00000000e+00	3.35013113e-03	1.17881412e-04
2.00500000e+00	3.38700130e-03	1.19457393e-04
2.01000000e+00	3.33872825e-03	1.29223980e-04
2.01500000e+00	3.33490865e-03	1.37122495e-04
2.02000000e+00	3.31011165e-03	1.44973843e-04
2.02500000e+00	3.30070980e-03	1.50285913e-04
2.03000000e+00	3.26060689e-03	1.57251279e-04
2.03500000e+00	3.28751013e-03	1.65706898e-04
2.04000000e+00	3.22443631e-03	1.69840877e-04
2.04500000e+00	3.24894275e-03	1.80006530e-04
2.05000000e+00	3.22702687e-03	1.87528984e-04
2.05500000e+00	3.25431995e-03	1.85409888e-04
2.06000000e+00	3.29608846e-03	1.63434262e-04
2.06500000e+00	3.23576935e-03	1.53349895e-04
2.07000000e+00	3.20007143e-03	1.43692890e-04
2.07500000e+00	3.23127713e-03	1.41760787e-04
2.08000000e+00	3.20808900e-03	1.40519758e-04
2.08500000e+00	3.20813486e-03	1.39187912e-04
2.09000000e+00	3.17237934e-03	1.33601149e-04
2.09500000e+00	3.18683614e-03	1.32745916e-04
2.10000000e+00	3.15914141e-03	1.30798552e-04
2.10500000e+00	3.12963022e-03	1.29114564e-04
2.11000000e+00	3.14045079e-03	1.24782289e-04
2.11500000e+00	3.11674714e-03	1.22691496e-04
2.12000000e+00	3.09257526e-03	1.20994948e-04
2.12500000e+00	3.06506346e-03	1.19570077e-04
2.13000000e+00	3.04259657e-03	1.13885917e-04
2.13500000e+00	3.04715120e-03	1.12685992e-04
2.14000000e+00	2.99678731e-03	1.09866655e-04
2.14500000e+00	2.97336853e-03	1.09251093e-04
2.15000000e+00	2.99111394e-03	1.06274142e-04
2.15500000e+00	3.00985078e-03	1.07093902e-04
2.16000000e+00	2.96827855e-03	1.05142079e-04
2.16500000e+00	2.94162072e-03	1.04908184e-04
2.17000000e+00	2.95132324e-03	1.02652299e-04
2.17500000e+00	2.95606927e-03	1.03113555e-04
2.18000000e+00	2.92614434e-03	1.02428730e-04
2.18500000e+00	2.89623391e-03	1.01844720e-04
2.19000000e+00	2.89898458e-03	1.01614052e-04
2.19500000e+00	2.86875768e-03	1.00060553e-04
2.20000000e+00	2.84798280e-03	9.95514780e-05
2.20500000e+00	2.83588748e-03	9.94143234e-05
2.21000000e+00	2.81588934e-03	9.92092376e-05
2.21500000e+00	2.80353348e-03	9.76909699e-05
2.22000000e+00	2.81949601e-03	9.81455215e-05
2.22500000e+00	2.78493223e-03	9.77651335e-05
2.23000000e+00	2.77054040e-03	9.78430136e-05
2.23500000e+00	2.76780287e-03	9.63474113e-05
2.24000000e+00	2.75636821e-03	9.60473009e-05
2.24500000e+00	2.72211965e-03	9.54262417e-05
2.25000000e+00	2.70668354e-03	9.57237471e-05
2.25500000e+00	2.69064704e-03	9.34793834e-05
2.26000000e+00	2.69525639e-03	9.39160141e-05
2.26500000e+00	2.67006431e-03	9.33944513e-05
2.27000000e+00	2.64785602e-03	9.40070261e-05
2.27500000e+00	2.63300969e-03	9.15701750e-05
2.28000000e+00	2.59903888e-03	9.04180351e-05
2.28500000e+00	2.59194254e-03	9.07889510e-05
2.29000000e+00	2.59620468e-03	9.14744544e-05
2.29500000e+00	2.59900489e-03	9.12036356e-05
2.30000000e+00	2.55688113e-03	8.89450216e-05
2.30500000e+00	2.55236122e-03	8.89972638e-05
2.31000000e+00	2.53970887e-03	8.90046707e-05
2.31500000e+00	2.51283788e-03	8.87884009e-05
2.32000000e+00	2.50924277e-03	8.69135773e-05
2.32500000e+00	2.49471139e-03	8.70343387e-05
2.33000000e+00	2.46426702e-03	8.63091276e-05
2.33500000e+00	2.48774902e-03	8.79585659e-05
2.34000000e+00	2.44995285e-03	8.51427677e-05
2.34500000e+00	2.43174779e-03	8.45123298e-05
2.35000000e+00	2.41108729e-03	8.41331509e-05
2.35500000e+00	2.41094305e-03	8.52387270e-05
2.36000000e+00	2.40793250e-03	8.38836330e-05
2.36500000e+00	2.40255919e-03	8.36562713e-05
2.37000000e+00	2.37793258e-03	8.28678067e-05
2.37500000e+00	2.36104667e-03	8.30280027e-05
2.38000000e+00	2.37022257e-03	8.37002062e-05
2.38500000e+00	2.33302890e-03	8.12511256e-05
2.39000000e+00	2.33565711e-03	8.16254564e-05
2.39500000e+00	2.33511223e-03	8.19841556e-05
2.40000000e+00	2.32092380e-03	8.27275081e-05
2.40500000e+00	2.31974563e-03	8.10385709e-05
2.41000000e+00	2.29973008e-03	8.05727186e-05
2.41500000e+00	2.28635261e-03	8.01271933e-05
2.42000000e+00	2.29775889e-03	8.16252071e-05
2.42500000e+00	2.35941221e-03	8.36983366e-05
2.43000000e+00	2.31536989e-03	8.13716506e-05
2.43500000e+00	2.26890858e-03	8.00236312e-05
2.44000000e+00	2.23763207e-03	7.91016506e-05
2.44500000e+00	2.21256192e-03	7.92893204e-05
2.45000000e+00	2.21303807e-03	7.78786774e-05
2.45500000e+00	2.19423483e-03	7.74740121e-05
2.46000000e+00	2.15964227e-03	7.65588332e-05
2.46500000e+00	2.16402920e-03	7.76942558e-05
2.47000000e+00	2.13969521e-03	7.60335990e-05
2.47500000e+00	2.11321541e-03	7.46700109e-05
2.48000000e+00	2.13359895e-03	7.61149590e-05
2.48500000e+00	2.11112463e-03	7.52553666e-05
2.49000000e+00	2.10189180e-03	7.60585298e-05
2.49500000e+00	2.09411969e-03	7.43710054e-05
2.50000000e+00	2.08462414e-03	7.40803632e-05
2.50500000e+00	2.08427661e-03	7.46073590e-05
2.51000000e+00	2.08028071e-03	7.49802000e-05
2.51500000e+00	2.05896220e-03	7.43692744e-05
2.52000000e+00	2.05577264e-03	7.35805707e-05
2.52500000e+00	2.04533894e-03	7.35635431e-05
2.53000000e+00	2.04901440e-03	7.42893102e-05
2.53500000e+00	2.01366252e-03	7.39256864e-05
2.54000000e+00	2.01110276e-03	7.25650362e-05
2.54500000e+00	1.98223403e-03	7.18916902e-05
2.55000000e+00	2.00145309e-03	7.29126640e-05
2.55500000e+00	1.97965851e-03	7.26895263e-05
2.56000000e+00	1.97787274e-03	7.30494237e-05
2.56500000e+00	1.99482332e-03	7.28777800e-05
2.57000000e+00	1.97959023e-03	7.28089131e-05
2.57500000e+00	1.93900251e-03	7.14528948e-05
2.58000000e+00	1.94212720e-03	7.27652784e-05
2.58500000e+00	1.93353530e-03	7.18691396e-05
2.59000000e+00	1.92645093e-03	7.14094409e-05
2.59500000e+00	1.92783668e-03	7.17122165e-05
2.60000000e+00	1.91703392e-03	7.17866190e-05
2.60500000e+00	1.93934951e-03	7.42966309e-05
2.61000000e+00	1.90537221e-03	8.32143321e-05
2.61500000e+00	1.85949608e-03	9.01338469e-05
2.62000000e+00	1.88283403e-03	1.00589582e-04
2.62500000e+00	1.82236899e-03	1.05406994e-04
2.63000000e+00	1.81739906e-03	1.16517167e-04
2.63500000e+00	1.81869246e-03	1.28030914e-04
2.64000000e+00	1.94458721e-03	1.50131632e-04
2.64500000e+00	1.93173918e-03	1.59035222e-04
2.65000000e+00	1.90902882e-03	1.66666011e-04
2.65500000e+00	1.94034039e-03	1.81794717e-04
2.66000000e+00	1.85840954e-03	1.86874195e-04
2.66500000e+00	1.82836844e-03	2.06653044e-04
2.67000000e+00	1.86539554e-03	2.29334592e-04
2.67500000e+00	1.81157980e-03	2.59658319e-04
2.68000000e+00	1.95072395e-03	3.23371654e-04
2.68500000e+00	1.89882937e-03	4.17812983e-04
2.69000000e+00	1.83949968e-03	6.57926206e-04
2.69500000e+00	0.00000000e+00	0.00000000e+00
2.70000000e+00	0.00000000e+00	0.00000000e+00
