% Filename : WDL5_p7_00025_00023.h5
% Date & Time : 30-Oct-2025 16:56:42
% X-ray Energy (keV) : 13.30001
% Exposure Time (s) : 0.500
% Photodiode Value : 141079.000
% I0 of Sample : 0
% I0 of Standard : 1
% 
% q(A^-1)   I(q)    I(q)_SE
8.40000000e-01	0.00000000e+00	0.00000000e+00
8.45000000e-01	2.91665894e-03	5.10688005e-04
8.50000000e-01	2.70473267e-03	2.51246983e-04
8.55000000e-01	2.62640988e-03	2.14766891e-04
8.60000000e-01	2.62020403e-03	1.85443793e-04
8.65000000e-01	2.63341606e-03	1.71622293e-04
8.70000000e-01	2.65778594e-03	1.65323417e-04
8.75000000e-01	2.63731447e-03	1.57863114e-04
8.80000000e-01	2.64422453e-03	1.53000317e-04
8.85000000e-01	2.65769691e-03	1.45330729e-04
8.90000000e-01	2.64513710e-03	1.41651197e-04
8.95000000e-01	2.68456407e-03	1.39547808e-04
9.00000000e-01	2.68845323e-03	1.38497353e-04
9.05000000e-01	2.67562855e-03	1.31841641e-04
9.10000000e-01	2.70544419e-03	1.30865413e-04
9.15000000e-01	2.69601140e-03	1.28320765e-04
9.20000000e-01	2.66456480e-03	1.26602021e-04
9.25000000e-01	2.70904581e-03	1.23044760e-04
9.30000000e-01	2.68386403e-03	1.20742091e-04
9.35000000e-01	2.72132842e-03	1.20177306e-04
9.40000000e-01	2.74253239e-03	1.21409188e-04
9.45000000e-01	2.73407043e-03	1.17981512e-04
9.50000000e-01	2.74671497e-03	1.16905364e-04
9.55000000e-01	2.76208375e-03	1.15402880e-04
9.60000000e-01	2.75737521e-03	1.15312433e-04
9.65000000e-01	2.74834632e-03	1.13005076e-04
9.70000000e-01	2.75482166e-03	1.11410099e-04
9.75000000e-01	2.74618770e-03	1.09935567e-04
9.80000000e-01	2.75102476e-03	1.09106144e-04
9.85000000e-01	2.78805021e-03	1.10809147e-04
9.90000000e-01	2.76178506e-03	1.06299474e-04
9.95000000e-01	2.76145884e-03	1.05908461e-04
1.00000000e+00	2.79391197e-03	1.06529632e-04
1.00500000e+00	2.76669323e-03	1.05462361e-04
1.01000000e+00	2.74624725e-03	1.02484792e-04
1.01500000e+00	2.77512352e-03	1.02630546e-04
1.02000000e+00	2.79441861e-03	1.03259976e-04
1.02500000e+00	2.78157413e-03	1.01608018e-04
1.03000000e+00	2.74271044e-03	9.97553937e-05
1.03500000e+00	2.75593627e-03	9.88952830e-05
1.04000000e+00	2.76461685e-03	9.85891774e-05
1.04500000e+00	2.75112098e-03	9.81554027e-05
1.05000000e+00	2.73387115e-03	9.69126984e-05
1.05500000e+00	2.74692038e-03	9.57710803e-05
1.06000000e+00	2.74590561e-03	9.56548496e-05
1.06500000e+00	2.75619609e-03	9.60319875e-05
1.07000000e+00	2.76772974e-03	9.62576422e-05
1.07500000e+00	2.76339035e-03	9.54762626e-05
1.08000000e+00	2.77479034e-03	9.51599232e-05
1.08500000e+00	2.77341956e-03	9.52681283e-05
1.09000000e+00	2.77318719e-03	9.58509222e-05
1.09500000e+00	2.78299787e-03	9.42743017e-05
1.10000000e+00	2.77744360e-03	9.47292844e-05
1.10500000e+00	2.80385801e-03	9.58326907e-05
1.11000000e+00	2.80888770e-03	9.61469901e-05
1.11500000e+00	2.83425289e-03	9.62538746e-05
1.12000000e+00	2.83529378e-03	9.68246541e-05
1.12500000e+00	2.84897364e-03	9.70003074e-05
1.13000000e+00	2.86045550e-03	9.84810063e-05
1.13500000e+00	2.84941044e-03	9.70234276e-05
1.14000000e+00	2.85484839e-03	9.69035211e-05
1.14500000e+00	2.87862541e-03	9.85497811e-05
1.15000000e+00	2.87160159e-03	9.87942228e-05
1.15500000e+00	2.86814704e-03	9.76872190e-05
1.16000000e+00	2.88037208e-03	9.83302497e-05
1.16500000e+00	2.89824925e-03	9.88549454e-05
1.17000000e+00	2.89108637e-03	9.98153308e-05
1.17500000e+00	2.89904768e-03	9.87941711e-05
1.18000000e+00	2.90887195e-03	9.95361312e-05
1.18500000e+00	2.90172825e-03	9.90577390e-05
1.19000000e+00	2.92107804e-03	1.00864862e-04
1.19500000e+00	2.94119997e-03	1.00258436e-04
1.20000000e+00	2.93030260e-03	1.00506882e-04
1.20500000e+00	2.94508331e-03	1.00834785e-04
1.21000000e+00	2.92223377e-03	1.01327371e-04
1.21500000e+00	2.94668563e-03	1.00565537e-04
1.22000000e+00	2.95355049e-03	1.00840329e-04
1.22500000e+00	2.94464077e-03	1.00992367e-04
1.23000000e+00	2.94282826e-03	1.01628513e-04
1.23500000e+00	2.96069376e-03	1.01618417e-04
1.24000000e+00	2.94115425e-03	1.00538100e-04
1.24500000e+00	2.96307103e-03	1.02016391e-04
1.25000000e+00	2.96110711e-03	1.02577968e-04
1.25500000e+00	2.98011690e-03	1.01986182e-04
1.26000000e+00	2.96603531e-03	1.02084407e-04
1.26500000e+00	2.94860406e-03	1.01152946e-04
1.27000000e+00	2.94747262e-03	1.02585737e-04
1.27500000e+00	2.97541413e-03	1.02545684e-04
1.28000000e+00	2.96893364e-03	1.01603093e-04
1.28500000e+00	2.99503548e-03	1.03106009e-04
1.29000000e+00	2.96367073e-03	1.03075815e-04
1.29500000e+00	2.98058458e-03	1.02448962e-04
1.30000000e+00	2.95779218e-03	1.01464716e-04
1.30500000e+00	2.98242369e-03	1.02772647e-04
1.31000000e+00	2.96745494e-03	1.03436135e-04
1.31500000e+00	2.98007290e-03	1.02602114e-04
1.32000000e+00	2.97495560e-03	1.02317334e-04
1.32500000e+00	2.97574539e-03	1.02573853e-04
1.33000000e+00	2.97697469e-03	1.03894965e-04
1.33500000e+00	2.96596285e-03	1.02101204e-04
1.34000000e+00	2.95311108e-03	1.01755937e-04
1.34500000e+00	2.98528189e-03	1.03154962e-04
1.35000000e+00	2.97183878e-03	1.03811989e-04
1.35500000e+00	2.99515221e-03	1.03186360e-04
1.36000000e+00	2.98489341e-03	1.02631268e-04
1.36500000e+00	2.97539303e-03	1.02622747e-04
1.37000000e+00	2.96426564e-03	1.03845328e-04
1.37500000e+00	2.95991490e-03	1.01979350e-04
1.38000000e+00	2.96373243e-03	1.02468645e-04
1.38500000e+00	2.95939637e-03	1.02823131e-04
1.39000000e+00	2.96906892e-03	1.03798718e-04
1.39500000e+00	2.98362061e-03	1.02844904e-04
1.40000000e+00	3.01098344e-03	1.06835370e-04
1.40500000e+00	2.94537334e-03	1.12576874e-04
1.41000000e+00	2.94755619e-03	1.17838941e-04
1.41500000e+00	2.94082152e-03	1.21914172e-04
1.42000000e+00	2.90577157e-03	1.25448782e-04
1.42500000e+00	2.88594615e-03	1.28031532e-04
1.43000000e+00	2.88693836e-03	1.33214673e-04
1.43500000e+00	2.89626209e-03	1.37726507e-04
1.44000000e+00	2.84571301e-03	1.40435507e-04
1.44500000e+00	2.86930050e-03	1.45166339e-04
1.45000000e+00	2.92075802e-03	1.43036278e-04
1.45500000e+00	2.93367174e-03	1.29024055e-04
1.46000000e+00	2.91615640e-03	1.25294663e-04
1.46500000e+00	2.92678728e-03	1.23416792e-04
1.47000000e+00	2.92448698e-03	1.23129894e-04
1.47500000e+00	2.95207120e-03	1.20695054e-04
1.48000000e+00	2.89184823e-03	1.16999146e-04
1.48500000e+00	2.93283674e-03	1.18701207e-04
1.49000000e+00	2.90330306e-03	1.17737054e-04
1.49500000e+00	2.92636178e-03	1.16063497e-04
1.50000000e+00	2.93279281e-03	1.15904443e-04
1.50500000e+00	2.92267909e-03	1.16116455e-04
1.51000000e+00	2.91997379e-03	1.16303719e-04
1.51500000e+00	2.95257391e-03	1.15646590e-04
1.52000000e+00	2.93639821e-03	1.14647061e-04
1.52500000e+00	2.93290109e-03	1.14351812e-04
1.53000000e+00	2.93837418e-03	1.15208130e-04
1.53500000e+00	2.94198240e-03	1.12067426e-04
1.54000000e+00	2.91314152e-03	1.10843390e-04
1.54500000e+00	2.91536665e-03	1.10709782e-04
1.55000000e+00	2.88645859e-03	1.09269362e-04
1.55500000e+00	2.87934019e-03	1.06610072e-04
1.56000000e+00	2.88402607e-03	1.06975451e-04
1.56500000e+00	2.85785517e-03	1.05562326e-04
1.57000000e+00	2.86279071e-03	1.04880436e-04
1.57500000e+00	2.83649717e-03	1.02037015e-04
1.58000000e+00	2.84887915e-03	1.02280139e-04
1.58500000e+00	2.84622169e-03	1.02254481e-04
1.59000000e+00	2.80806909e-03	1.00918840e-04
1.59500000e+00	2.84843503e-03	1.00364512e-04
1.60000000e+00	2.81462027e-03	9.91050792e-05
1.60500000e+00	2.80561207e-03	9.88506736e-05
1.61000000e+00	2.79493860e-03	9.81159606e-05
1.61500000e+00	2.79177413e-03	9.70803279e-05
1.62000000e+00	2.78379996e-03	9.72091157e-05
1.62500000e+00	2.78319308e-03	9.82908264e-05
1.63000000e+00	2.77710666e-03	9.70720265e-05
1.63500000e+00	2.77666498e-03	9.70247340e-05
1.64000000e+00	2.76120688e-03	9.66030626e-05
1.64500000e+00	2.76504032e-03	9.77639570e-05
1.65000000e+00	2.74803234e-03	9.60434162e-05
1.65500000e+00	2.73459499e-03	9.54888005e-05
1.66000000e+00	2.72441037e-03	9.52239086e-05
1.66500000e+00	2.74004215e-03	9.73475559e-05
1.67000000e+00	2.72589226e-03	9.48581947e-05
1.67500000e+00	2.71889762e-03	9.49127134e-05
1.68000000e+00	2.69976675e-03	9.45302341e-05
1.68500000e+00	2.70793954e-03	9.63984052e-05
1.69000000e+00	2.68864946e-03	9.38472433e-05
1.69500000e+00	2.69409653e-03	9.38372935e-05
1.70000000e+00	2.69568892e-03	9.49564698e-05
1.70500000e+00	2.67806628e-03	9.48381120e-05
1.71000000e+00	2.67137583e-03	9.33081424e-05
1.71500000e+00	2.65158678e-03	9.26236057e-05
1.72000000e+00	2.64622205e-03	9.31441113e-05
1.72500000e+00	2.64964790e-03	9.37827231e-05
1.73000000e+00	2.64733501e-03	9.25301404e-05
1.73500000e+00	2.64993978e-03	9.28570352e-05
1.74000000e+00	2.62228705e-03	9.21905072e-05
1.74500000e+00	2.62876344e-03	9.33946482e-05
1.75000000e+00	2.61151263e-03	9.10415751e-05
1.75500000e+00	2.61836276e-03	9.18804519e-05
1.76000000e+00	2.58330672e-03	9.05776621e-05
1.76500000e+00	2.61915436e-03	9.30235249e-05
1.77000000e+00	2.58242964e-03	9.02144130e-05
1.77500000e+00	2.57975210e-03	9.03765460e-05
1.78000000e+00	2.56915301e-03	9.02560638e-05
1.78500000e+00	2.57651977e-03	9.14140493e-05
1.79000000e+00	2.56241667e-03	8.95252617e-05
1.79500000e+00	2.56214085e-03	8.97781829e-05
1.80000000e+00	2.57298789e-03	9.06059642e-05
1.80500000e+00	2.52423313e-03	8.95569135e-05
1.81000000e+00	2.54729513e-03	8.90058630e-05
1.81500000e+00	2.52951630e-03	8.84379949e-05
1.82000000e+00	2.51769922e-03	8.85391031e-05
1.82500000e+00	2.51244216e-03	8.89826806e-05
1.83000000e+00	2.52014822e-03	8.81346738e-05
1.83500000e+00	2.49729370e-03	8.75164341e-05
1.84000000e+00	2.52663154e-03	8.89024375e-05
1.84500000e+00	2.49395196e-03	8.84066624e-05
1.85000000e+00	2.47096178e-03	8.64914357e-05
1.85500000e+00	2.46977583e-03	8.64713588e-05
1.86000000e+00	2.44889286e-03	8.63760287e-05
1.86500000e+00	2.44629577e-03	8.64912390e-05
1.87000000e+00	2.45484321e-03	8.58039906e-05
1.87500000e+00	2.44662498e-03	8.58018193e-05
1.88000000e+00	2.43559221e-03	8.57729103e-05
1.88500000e+00	2.41797324e-03	8.57090047e-05
1.89000000e+00	2.43014492e-03	8.49083050e-05
1.89500000e+00	2.41375524e-03	8.48129774e-05
1.90000000e+00	2.40731898e-03	8.48556057e-05
1.90500000e+00	2.38187864e-03	8.40388472e-05
1.91000000e+00	2.38253740e-03	8.35625869e-05
1.91500000e+00	2.37328645e-03	8.32336659e-05
1.92000000e+00	2.38325596e-03	8.40566101e-05
1.92500000e+00	2.37874100e-03	8.39758397e-05
1.93000000e+00	2.39241849e-03	8.37764047e-05
1.93500000e+00	2.36220412e-03	8.28516743e-05
1.94000000e+00	2.32997752e-03	8.24182919e-05
1.94500000e+00	2.34194550e-03	8.26032326e-05
1.95000000e+00	2.31605036e-03	8.09967455e-05
1.95500000e+00	2.32878652e-03	8.16970767e-05
1.96000000e+00	2.31126763e-03	8.16117867e-05
1.96500000e+00	2.31621049e-03	8.19266791e-05
1.97000000e+00	2.29457103e-03	8.00380470e-05
1.97500000e+00	2.28965228e-03	8.04531494e-05
1.98000000e+00	2.30004940e-03	8.12029159e-05
1.98500000e+00	2.30059948e-03	8.13254995e-05
1.99000000e+00	2.27396860e-03	7.94469888e-05
1.99500000e+00	2.23833767e-03	7.85450049e-05
2.00000000e+00	2.25980047e-03	7.98071479e-05
2.00500000e+00	2.28137806e-03	8.06279773e-05
2.01000000e+00	2.25804000e-03	8.77227640e-05
2.01500000e+00	2.22421697e-03	9.17423932e-05
2.02000000e+00	2.21383912e-03	9.72972732e-05
2.02500000e+00	2.18201573e-03	9.98038396e-05
2.03000000e+00	2.17507243e-03	1.05253441e-04
2.03500000e+00	2.16770124e-03	1.09700463e-04
2.04000000e+00	2.16692395e-03	1.14599615e-04
2.04500000e+00	2.11824865e-03	1.17756775e-04
2.05000000e+00	2.11465820e-03	1.23446382e-04
2.05500000e+00	2.16724897e-03	1.23988808e-04
2.06000000e+00	2.19276775e-03	1.09100924e-04
2.06500000e+00	2.13997862e-03	1.01843072e-04
2.07000000e+00	2.13524363e-03	9.60782432e-05
2.07500000e+00	2.15313204e-03	9.48332555e-05
2.08000000e+00	2.13607756e-03	9.37736197e-05
2.08500000e+00	2.11638802e-03	9.22883605e-05
2.09000000e+00	2.13248783e-03	9.01307840e-05
2.09500000e+00	2.13370458e-03	8.90846784e-05
2.10000000e+00	2.11683077e-03	8.79274219e-05
2.10500000e+00	2.11116690e-03	8.73690576e-05
2.11000000e+00	2.09683877e-03	8.35534944e-05
2.11500000e+00	2.10959774e-03	8.33583267e-05
2.12000000e+00	2.07421069e-03	8.13729821e-05
2.12500000e+00	2.06218898e-03	8.08101947e-05
2.13000000e+00	2.05687804e-03	7.72043666e-05
2.13500000e+00	2.02163856e-03	7.50123296e-05
2.14000000e+00	2.01417563e-03	7.40957238e-05
2.14500000e+00	1.98484314e-03	7.31427524e-05
2.15000000e+00	2.00439272e-03	7.15089047e-05
2.15500000e+00	1.97770968e-03	7.06370990e-05
2.16000000e+00	1.96651155e-03	6.98890848e-05
2.16500000e+00	1.98000422e-03	7.08790335e-05
2.17000000e+00	1.96193214e-03	6.85634733e-05
2.17500000e+00	1.95945997e-03	6.86069933e-05
2.18000000e+00	1.93256201e-03	6.79184519e-05
2.18500000e+00	1.94833366e-03	6.87908865e-05
2.19000000e+00	1.91205542e-03	6.73493138e-05
2.19500000e+00	1.90101459e-03	6.66273053e-05
2.20000000e+00	1.90096565e-03	6.67606699e-05
2.20500000e+00	1.88630088e-03	6.64058041e-05
2.21000000e+00	1.88147946e-03	6.65983945e-05
2.21500000e+00	1.87109393e-03	6.55230293e-05
2.22000000e+00	1.84940063e-03	6.46584788e-05
2.22500000e+00	1.83812624e-03	6.48288789e-05
2.23000000e+00	1.83371621e-03	6.49969577e-05
2.23500000e+00	1.81717901e-03	6.34808709e-05
2.24000000e+00	1.82019083e-03	6.36935633e-05
2.24500000e+00	1.81153825e-03	6.37634374e-05
2.25000000e+00	1.79195212e-03	6.36383065e-05
2.25500000e+00	1.77910589e-03	6.21220848e-05
2.26000000e+00	1.77895125e-03	6.22868024e-05
2.26500000e+00	1.76381146e-03	6.19898170e-05
2.27000000e+00	1.74204344e-03	6.20780385e-05
2.27500000e+00	1.75410887e-03	6.13055183e-05
2.28000000e+00	1.71981736e-03	6.00947258e-05
2.28500000e+00	1.73177478e-03	6.08712492e-05
2.29000000e+00	1.70233669e-03	6.02387071e-05
2.29500000e+00	1.71001680e-03	6.01938625e-05
2.30000000e+00	1.68536725e-03	5.89076107e-05
2.30500000e+00	1.67242719e-03	5.85638379e-05
2.31000000e+00	1.65940267e-03	5.84308632e-05
2.31500000e+00	1.66073364e-03	5.89789692e-05
2.32000000e+00	1.64575126e-03	5.72018888e-05
2.32500000e+00	1.63338364e-03	5.73077294e-05
2.33000000e+00	1.61644309e-03	5.67572652e-05
2.33500000e+00	1.61789390e-03	5.74255464e-05
2.34000000e+00	1.60880864e-03	5.60773219e-05
2.34500000e+00	1.60202481e-03	5.58518334e-05
2.35000000e+00	1.58953703e-03	5.56837983e-05
2.35500000e+00	1.57727364e-03	5.59639536e-05
2.36000000e+00	1.55253365e-03	5.44039842e-05
2.36500000e+00	1.57109318e-03	5.49420288e-05
2.37000000e+00	1.52515240e-03	5.33610006e-05
2.37500000e+00	1.53091531e-03	5.39876108e-05
2.38000000e+00	1.52959819e-03	5.42145043e-05
2.38500000e+00	1.52820576e-03	5.34544735e-05
2.39000000e+00	1.51334127e-03	5.30213632e-05
2.39500000e+00	1.51353358e-03	5.33836961e-05
2.40000000e+00	1.51089389e-03	5.40372876e-05
2.40500000e+00	1.49533224e-03	5.24007180e-05
2.41000000e+00	1.47869836e-03	5.19978027e-05
2.41500000e+00	1.46603463e-03	5.15479916e-05
2.42000000e+00	1.46683497e-03	5.23216093e-05
2.42500000e+00	1.48408075e-03	5.28063786e-05
2.43000000e+00	1.46140037e-03	5.15470414e-05
2.43500000e+00	1.44645942e-03	5.11771021e-05
2.44000000e+00	1.42946351e-03	5.06919482e-05
2.44500000e+00	1.41450464e-03	5.08027626e-05
2.45000000e+00	1.39589271e-03	4.92408004e-05
2.45500000e+00	1.39418087e-03	4.94175633e-05
2.46000000e+00	1.37782587e-03	4.90120422e-05
2.46500000e+00	1.38056877e-03	4.96973306e-05
2.47000000e+00	1.37280753e-03	4.89914481e-05
2.47500000e+00	1.35973967e-03	4.82121055e-05
2.48000000e+00	1.36037852e-03	4.86034681e-05
2.48500000e+00	1.33944699e-03	4.78390781e-05
2.49000000e+00	1.32878857e-03	4.80392845e-05
2.49500000e+00	1.33305480e-03	4.73066179e-05
2.50000000e+00	1.32336079e-03	4.71246834e-05
2.50500000e+00	1.31551850e-03	4.71321478e-05
2.51000000e+00	1.30969841e-03	4.72013226e-05
2.51500000e+00	1.29473831e-03	4.67868717e-05
2.52000000e+00	1.30055625e-03	4.66745376e-05
2.52500000e+00	1.29950568e-03	4.67999539e-05
2.53000000e+00	1.27442445e-03	4.62746410e-05
2.53500000e+00	1.25744561e-03	4.62456708e-05
2.54000000e+00	1.26399389e-03	4.57331556e-05
2.54500000e+00	1.25386265e-03	4.55578728e-05
2.55000000e+00	1.23847306e-03	4.52046928e-05
2.55500000e+00	1.24332924e-03	4.57443440e-05
2.56000000e+00	1.24218284e-03	4.59892862e-05
2.56500000e+00	1.24143275e-03	4.54467411e-05
2.57000000e+00	1.21985135e-03	4.48844209e-05
2.57500000e+00	1.22015866e-03	4.50804976e-05
2.58000000e+00	1.21250497e-03	4.55425045e-05
2.58500000e+00	1.20096565e-03	4.46599015e-05
2.59000000e+00	1.18569552e-03	4.40223449e-05
2.59500000e+00	1.18861183e-03	4.43862212e-05
2.60000000e+00	1.17926150e-03	4.42456569e-05
2.60500000e+00	1.18453491e-03	4.54477874e-05
2.61000000e+00	1.18854547e-03	5.19934691e-05
2.61500000e+00	1.18832754e-03	5.74460396e-05
2.62000000e+00	1.16611486e-03	6.20156033e-05
2.62500000e+00	1.18270230e-03	6.78922823e-05
2.63000000e+00	1.14427661e-03	7.26916660e-05
2.63500000e+00	1.16935494e-03	8.25747126e-05
2.64000000e+00	1.14335211e-03	8.88145691e-05
2.64500000e+00	1.16209707e-03	9.66239442e-05
2.65000000e+00	1.13692962e-03	9.99060414e-05
2.65500000e+00	1.15297920e-03	1.09282623e-04
2.66000000e+00	1.12671807e-03	1.14143238e-04
2.66500000e+00	1.09225493e-03	1.24123523e-04
2.67000000e+00	1.08632445e-03	1.34341621e-04
2.67500000e+00	1.06940223e-03	1.53942295e-04
2.68000000e+00	1.11886454e-03	1.87355289e-04
2.68500000e+00	1.13662875e-03	2.53000299e-04
2.69000000e+00	1.06517962e-03	3.92086541e-04
2.69500000e+00	0.00000000e+00	0.00000000e+00
2.70000000e+00	0.00000000e+00	0.00000000e+00
