% Filename : WDL5_p7_00023_00025.h5
% Date & Time : 30-Oct-2025 16:53:19
% X-ray Energy (keV) : 13.30001
% Exposure Time (s) : 0.500
% Photodiode Value : 140934.000
% I0 of Sample : 0
% I0 of Standard : 1
% 
% q(A^-1)   I(q)    I(q)_SE
8.40000000e-01	0.00000000e+00	0.00000000e+00
8.45000000e-01	2.85069339e-03	5.00554014e-04
8.50000000e-01	2.71835550e-03	2.52473454e-04
8.55000000e-01	2.73101731e-03	2.22865359e-04
8.60000000e-01	2.66794058e-03	1.88852534e-04
8.65000000e-01	2.66820503e-03	1.74014203e-04
8.70000000e-01	2.66718301e-03	1.65740615e-04
8.75000000e-01	2.68554815e-03	1.60596536e-04
8.80000000e-01	2.68482774e-03	1.55366230e-04
8.85000000e-01	2.70919899e-03	1.48069636e-04
8.90000000e-01	2.71382591e-03	1.45125025e-04
8.95000000e-01	2.72261522e-03	1.41593433e-04
9.00000000e-01	2.74963161e-03	1.41583342e-04
9.05000000e-01	2.72698738e-03	1.34220294e-04
9.10000000e-01	2.72780132e-03	1.31824797e-04
9.15000000e-01	2.75939726e-03	1.31134176e-04
9.20000000e-01	2.77245504e-03	1.31832158e-04
9.25000000e-01	2.77002283e-03	1.25909540e-04
9.30000000e-01	2.79498500e-03	1.25779247e-04
9.35000000e-01	2.77984243e-03	1.22550672e-04
9.40000000e-01	2.77727557e-03	1.22872166e-04
9.45000000e-01	2.79919949e-03	1.20866431e-04
9.50000000e-01	2.78112491e-03	1.18257946e-04
9.55000000e-01	2.81109478e-03	1.17417815e-04
9.60000000e-01	2.81762251e-03	1.17781404e-04
9.65000000e-01	2.83368195e-03	1.16497394e-04
9.70000000e-01	2.83307257e-03	1.14507240e-04
9.75000000e-01	2.79424446e-03	1.11838051e-04
9.80000000e-01	2.83678426e-03	1.12503426e-04
9.85000000e-01	2.82798981e-03	1.12251525e-04
9.90000000e-01	2.81903720e-03	1.08470157e-04
9.95000000e-01	2.83167194e-03	1.08517765e-04
1.00000000e+00	2.85294172e-03	1.08767591e-04
1.00500000e+00	2.85943105e-03	1.09033128e-04
1.01000000e+00	2.85285715e-03	1.06643870e-04
1.01500000e+00	2.84394626e-03	1.05120990e-04
1.02000000e+00	2.85521041e-03	1.05502119e-04
1.02500000e+00	2.83287988e-03	1.03351565e-04
1.03000000e+00	2.83303794e-03	1.02941199e-04
1.03500000e+00	2.84142206e-03	1.01861938e-04
1.04000000e+00	2.83831365e-03	1.01148756e-04
1.04500000e+00	2.82661210e-03	1.00822421e-04
1.05000000e+00	2.81881381e-03	9.99782482e-05
1.05500000e+00	2.80546059e-03	9.77948785e-05
1.06000000e+00	2.81986348e-03	9.81820331e-05
1.06500000e+00	2.81757161e-03	9.81864512e-05
1.07000000e+00	2.83552661e-03	9.87051594e-05
1.07500000e+00	2.85432978e-03	9.84559818e-05
1.08000000e+00	2.85059175e-03	9.78409931e-05
1.08500000e+00	2.86179536e-03	9.81872955e-05
1.09000000e+00	2.86523983e-03	9.89502546e-05
1.09500000e+00	2.86888994e-03	9.71823905e-05
1.10000000e+00	2.87197425e-03	9.78081581e-05
1.10500000e+00	2.87057351e-03	9.81682650e-05
1.11000000e+00	2.87422232e-03	9.83198165e-05
1.11500000e+00	2.92445371e-03	9.93911736e-05
1.12000000e+00	2.89792617e-03	9.88784337e-05
1.12500000e+00	2.93613668e-03	9.98805578e-05
1.13000000e+00	2.91489698e-03	1.00351663e-04
1.13500000e+00	2.92879109e-03	9.95583313e-05
1.14000000e+00	2.94091223e-03	9.97466586e-05
1.14500000e+00	2.94840179e-03	1.00858086e-04
1.15000000e+00	2.94956793e-03	1.01537545e-04
1.15500000e+00	2.94910679e-03	1.00408360e-04
1.16000000e+00	2.97895142e-03	1.01675227e-04
1.16500000e+00	2.96148072e-03	1.00933585e-04
1.17000000e+00	2.99057144e-03	1.03237692e-04
1.17500000e+00	2.98470129e-03	1.01569394e-04
1.18000000e+00	2.98052236e-03	1.01982723e-04
1.18500000e+00	2.99237816e-03	1.02137785e-04
1.19000000e+00	3.02437637e-03	1.04379740e-04
1.19500000e+00	2.99864660e-03	1.02218484e-04
1.20000000e+00	3.02171253e-03	1.03567246e-04
1.20500000e+00	3.01097029e-03	1.03070946e-04
1.21000000e+00	3.02646997e-03	1.04996993e-04
1.21500000e+00	3.03751751e-03	1.03605780e-04
1.22000000e+00	3.03696869e-03	1.03745696e-04
1.22500000e+00	3.03031542e-03	1.03866172e-04
1.23000000e+00	3.03187666e-03	1.04775757e-04
1.23500000e+00	3.03821050e-03	1.04286547e-04
1.24000000e+00	3.05195192e-03	1.04268122e-04
1.24500000e+00	3.04439818e-03	1.04810343e-04
1.25000000e+00	3.02746486e-03	1.04828958e-04
1.25500000e+00	3.06099768e-03	1.04718338e-04
1.26000000e+00	3.07109900e-03	1.05640576e-04
1.26500000e+00	3.04455168e-03	1.04379417e-04
1.27000000e+00	3.07853305e-03	1.07125228e-04
1.27500000e+00	3.08035942e-03	1.06032430e-04
1.28000000e+00	3.05562741e-03	1.04583797e-04
1.28500000e+00	3.05947324e-03	1.05253181e-04
1.29000000e+00	3.04116951e-03	1.05628719e-04
1.29500000e+00	3.05364846e-03	1.04890394e-04
1.30000000e+00	3.08415191e-03	1.05770469e-04
1.30500000e+00	3.06423974e-03	1.05491947e-04
1.31000000e+00	3.07810622e-03	1.07285063e-04
1.31500000e+00	3.06794288e-03	1.05578968e-04
1.32000000e+00	3.08716881e-03	1.06166702e-04
1.32500000e+00	3.07696596e-03	1.06111939e-04
1.33000000e+00	3.07370230e-03	1.07264764e-04
1.33500000e+00	3.08277934e-03	1.06122607e-04
1.34000000e+00	3.09621600e-03	1.06687900e-04
1.34500000e+00	3.05106193e-03	1.05429993e-04
1.35000000e+00	3.08254110e-03	1.07630732e-04
1.35500000e+00	3.07785207e-03	1.05992548e-04
1.36000000e+00	3.08065443e-03	1.05914334e-04
1.36500000e+00	3.07932118e-03	1.06286016e-04
1.37000000e+00	3.06600903e-03	1.07417173e-04
1.37500000e+00	3.07907115e-03	1.06133505e-04
1.38000000e+00	3.07383421e-03	1.06210256e-04
1.38500000e+00	3.07195911e-03	1.06657245e-04
1.39000000e+00	3.07223909e-03	1.07430767e-04
1.39500000e+00	3.07506423e-03	1.05912183e-04
1.40000000e+00	3.11985426e-03	1.10756937e-04
1.40500000e+00	3.06782650e-03	1.17197420e-04
1.41000000e+00	3.04104763e-03	1.21638090e-04
1.41500000e+00	3.02605382e-03	1.25384372e-04
1.42000000e+00	3.04606732e-03	1.31375888e-04
1.42500000e+00	3.04196492e-03	1.34969207e-04
1.43000000e+00	3.00758172e-03	1.38681965e-04
1.43500000e+00	2.98112745e-03	1.41516599e-04
1.44000000e+00	2.96729331e-03	1.46223034e-04
1.44500000e+00	2.93019911e-03	1.48295787e-04
1.45000000e+00	3.03169890e-03	1.48355586e-04
1.45500000e+00	3.05087089e-03	1.33993593e-04
1.46000000e+00	3.05078135e-03	1.30959726e-04
1.46500000e+00	3.04254790e-03	1.28210026e-04
1.47000000e+00	3.04940479e-03	1.28385026e-04
1.47500000e+00	3.01372044e-03	1.23168464e-04
1.48000000e+00	3.04766831e-03	1.23180345e-04
1.48500000e+00	3.00830615e-03	1.21706300e-04
1.49000000e+00	3.05536932e-03	1.23923478e-04
1.49500000e+00	3.03212763e-03	1.20200342e-04
1.50000000e+00	3.04727316e-03	1.20391179e-04
1.50500000e+00	3.04569050e-03	1.20991143e-04
1.51000000e+00	3.06945122e-03	1.22266865e-04
1.51500000e+00	3.07517551e-03	1.20465622e-04
1.52000000e+00	3.10202134e-03	1.21145638e-04
1.52500000e+00	3.03254351e-03	1.18218186e-04
1.53000000e+00	3.04870810e-03	1.19543874e-04
1.53500000e+00	3.06497842e-03	1.16717922e-04
1.54000000e+00	3.05360224e-03	1.16150800e-04
1.54500000e+00	3.01708330e-03	1.14527426e-04
1.55000000e+00	3.04094793e-03	1.15132168e-04
1.55500000e+00	3.02797141e-03	1.11934076e-04
1.56000000e+00	3.02138128e-03	1.11993662e-04
1.56500000e+00	2.97909956e-03	1.09949370e-04
1.57000000e+00	2.93511308e-03	1.07519708e-04
1.57500000e+00	2.94480698e-03	1.05866886e-04
1.58000000e+00	2.95094717e-03	1.05971556e-04
1.58500000e+00	2.94451126e-03	1.05671789e-04
1.59000000e+00	2.94514269e-03	1.05755768e-04
1.59500000e+00	2.93034051e-03	1.03274818e-04
1.60000000e+00	2.93363116e-03	1.03343011e-04
1.60500000e+00	2.91190032e-03	1.02631604e-04
1.61000000e+00	2.91550450e-03	1.02331854e-04
1.61500000e+00	2.88825693e-03	1.00387569e-04
1.62000000e+00	2.89846938e-03	1.01241896e-04
1.62500000e+00	2.89955141e-03	1.02428678e-04
1.63000000e+00	2.89939595e-03	1.01285230e-04
1.63500000e+00	2.89541324e-03	1.01138410e-04
1.64000000e+00	2.90080059e-03	1.01389680e-04
1.64500000e+00	2.87351075e-03	1.01535559e-04
1.65000000e+00	2.85906926e-03	9.99948190e-05
1.65500000e+00	2.85362820e-03	9.96095754e-05
1.66000000e+00	2.84006484e-03	9.92907167e-05
1.66500000e+00	2.82408114e-03	1.00445478e-04
1.67000000e+00	2.85662772e-03	9.94298177e-05
1.67500000e+00	2.83536769e-03	9.90169717e-05
1.68000000e+00	2.82267032e-03	9.87965013e-05
1.68500000e+00	2.82471245e-03	1.00634287e-04
1.69000000e+00	2.79738189e-03	9.76687287e-05
1.69500000e+00	2.81346379e-03	9.80187395e-05
1.70000000e+00	2.79287242e-03	9.83725834e-05
1.70500000e+00	2.77409478e-03	9.81492962e-05
1.71000000e+00	2.78445790e-03	9.72535270e-05
1.71500000e+00	2.77717906e-03	9.69323116e-05
1.72000000e+00	2.74950020e-03	9.67934165e-05
1.72500000e+00	2.74251557e-03	9.71063212e-05
1.73000000e+00	2.75302341e-03	9.61392054e-05
1.73500000e+00	2.74469490e-03	9.61461164e-05
1.74000000e+00	2.72568156e-03	9.56931917e-05
1.74500000e+00	2.73807553e-03	9.73368176e-05
1.75000000e+00	2.73800476e-03	9.54505374e-05
1.75500000e+00	2.71289436e-03	9.51446376e-05
1.76000000e+00	2.69014927e-03	9.43202785e-05
1.76500000e+00	2.69241751e-03	9.56618000e-05
1.77000000e+00	2.69431149e-03	9.40566785e-05
1.77500000e+00	2.70080210e-03	9.46265144e-05
1.78000000e+00	2.68096276e-03	9.41571432e-05
1.78500000e+00	2.66514037e-03	9.46472158e-05
1.79000000e+00	2.66787909e-03	9.31250144e-05
1.79500000e+00	2.65009206e-03	9.27826466e-05
1.80000000e+00	2.65387394e-03	9.34416976e-05
1.80500000e+00	2.65021302e-03	9.39992033e-05
1.81000000e+00	2.63431302e-03	9.19845725e-05
1.81500000e+00	2.64066786e-03	9.22826035e-05
1.82000000e+00	2.63244984e-03	9.26565945e-05
1.82500000e+00	2.61590636e-03	9.26684365e-05
1.83000000e+00	2.60641259e-03	9.11129879e-05
1.83500000e+00	2.60369884e-03	9.11494836e-05
1.84000000e+00	2.60641411e-03	9.17620013e-05
1.84500000e+00	2.58669927e-03	9.15386133e-05
1.85000000e+00	2.57841711e-03	9.02028633e-05
1.85500000e+00	2.58844980e-03	9.06495550e-05
1.86000000e+00	2.57207566e-03	9.06187604e-05
1.86500000e+00	2.56291417e-03	9.05546853e-05
1.87000000e+00	2.54659131e-03	8.90313770e-05
1.87500000e+00	2.52802729e-03	8.87126966e-05
1.88000000e+00	2.54310175e-03	8.95660961e-05
1.88500000e+00	2.53928166e-03	8.99770472e-05
1.89000000e+00	2.53411961e-03	8.85127678e-05
1.89500000e+00	2.51711146e-03	8.84195954e-05
1.90000000e+00	2.50108898e-03	8.81516542e-05
1.90500000e+00	2.48118682e-03	8.75067014e-05
1.91000000e+00	2.49350903e-03	8.73293384e-05
1.91500000e+00	2.46392974e-03	8.64088554e-05
1.92000000e+00	2.46034320e-03	8.66713728e-05
1.92500000e+00	2.47240397e-03	8.72369357e-05
1.93000000e+00	2.45012610e-03	8.57364191e-05
1.93500000e+00	2.46801488e-03	8.65670512e-05
1.94000000e+00	2.45854691e-03	8.69034176e-05
1.94500000e+00	2.43672359e-03	8.58692639e-05
1.95000000e+00	2.42507590e-03	8.47356802e-05
1.95500000e+00	2.41580512e-03	8.47358439e-05
1.96000000e+00	2.39834563e-03	8.46297987e-05
1.96500000e+00	2.39470418e-03	8.45347557e-05
1.97000000e+00	2.40217724e-03	8.39298548e-05
1.97500000e+00	2.37225525e-03	8.33517311e-05
1.98000000e+00	2.37645708e-03	8.38429606e-05
1.98500000e+00	2.37360589e-03	8.38648091e-05
1.99000000e+00	2.36979711e-03	8.26950898e-05
1.99500000e+00	2.35656233e-03	8.26900676e-05
2.00000000e+00	2.34922032e-03	8.29375367e-05
2.00500000e+00	2.35996548e-03	8.35527272e-05
2.01000000e+00	2.33684719e-03	9.06609175e-05
2.01500000e+00	2.30670212e-03	9.52055851e-05
2.02000000e+00	2.28643162e-03	1.00536264e-04
2.02500000e+00	2.32170056e-03	1.06084933e-04
2.03000000e+00	2.27011087e-03	1.09918926e-04
2.03500000e+00	2.28299309e-03	1.15540716e-04
2.04000000e+00	2.22862317e-03	1.17840754e-04
2.04500000e+00	2.19667405e-03	1.21959229e-04
2.05000000e+00	2.19795656e-03	1.28395645e-04
2.05500000e+00	2.22499964e-03	1.27404790e-04
2.06000000e+00	2.28190354e-03	1.13576778e-04
2.06500000e+00	2.27472183e-03	1.08195420e-04
2.07000000e+00	2.24844228e-03	1.01166529e-04
2.07500000e+00	2.26792460e-03	9.97715634e-05
2.08000000e+00	2.24484186e-03	9.87497011e-05
2.08500000e+00	2.24198496e-03	9.75723696e-05
2.09000000e+00	2.22131971e-03	9.38019111e-05
2.09500000e+00	2.21040776e-03	9.24179735e-05
2.10000000e+00	2.23478458e-03	9.27239183e-05
2.10500000e+00	2.20806687e-03	9.13345396e-05
2.11000000e+00	2.18748678e-03	8.71709127e-05
2.11500000e+00	2.17662284e-03	8.58369419e-05
2.12000000e+00	2.16344365e-03	8.49005563e-05
2.12500000e+00	2.14281140e-03	8.38300699e-05
2.13000000e+00	2.13566388e-03	8.02493623e-05
2.13500000e+00	2.12733020e-03	7.88470658e-05
2.14000000e+00	2.10757127e-03	7.75363983e-05
2.14500000e+00	2.07382341e-03	7.64909187e-05
2.15000000e+00	2.06978923e-03	7.37933298e-05
2.15500000e+00	2.05624960e-03	7.34430369e-05
2.16000000e+00	2.05325689e-03	7.29662030e-05
2.16500000e+00	2.05628935e-03	7.35704457e-05
2.17000000e+00	2.05837772e-03	7.18643301e-05
2.17500000e+00	2.04362785e-03	7.15225987e-05
2.18000000e+00	2.02235560e-03	7.10635189e-05
2.18500000e+00	2.00663245e-03	7.07914032e-05
2.19000000e+00	2.00744740e-03	7.06049194e-05
2.19500000e+00	2.00099699e-03	7.00973132e-05
2.20000000e+00	2.00076244e-03	7.01617787e-05
2.20500000e+00	1.96315060e-03	6.91351635e-05
2.21000000e+00	1.96380772e-03	6.95407732e-05
2.21500000e+00	1.95521185e-03	6.84185130e-05
2.22000000e+00	1.94360676e-03	6.79685628e-05
2.22500000e+00	1.93832427e-03	6.83778044e-05
2.23000000e+00	1.91881575e-03	6.79567033e-05
2.23500000e+00	1.90560826e-03	6.66711269e-05
2.24000000e+00	1.89493605e-03	6.62964666e-05
2.24500000e+00	1.87986569e-03	6.62228276e-05
2.25000000e+00	1.87141968e-03	6.64625794e-05
2.25500000e+00	1.84960728e-03	6.45067600e-05
2.26000000e+00	1.83135568e-03	6.42035518e-05
2.26500000e+00	1.84773119e-03	6.49678188e-05
2.27000000e+00	1.81182929e-03	6.45680006e-05
2.27500000e+00	1.81087704e-03	6.32020672e-05
2.28000000e+00	1.80481824e-03	6.30401259e-05
2.28500000e+00	1.79712619e-03	6.32695237e-05
2.29000000e+00	1.77045755e-03	6.25974903e-05
2.29500000e+00	1.77201945e-03	6.25516840e-05
2.30000000e+00	1.76218742e-03	6.15311421e-05
2.30500000e+00	1.74630250e-03	6.11286514e-05
2.31000000e+00	1.74469216e-03	6.14520615e-05
2.31500000e+00	1.72052662e-03	6.10289970e-05
2.32000000e+00	1.72460342e-03	6.00246090e-05
2.32500000e+00	1.70601042e-03	5.97808307e-05
2.33000000e+00	1.69840963e-03	5.96989527e-05
2.33500000e+00	1.67087095e-03	5.92527729e-05
2.34000000e+00	1.66229467e-03	5.79926806e-05
2.34500000e+00	1.65638244e-03	5.77955390e-05
2.35000000e+00	1.64315241e-03	5.75879136e-05
2.35500000e+00	1.64802671e-03	5.84728990e-05
2.36000000e+00	1.63833109e-03	5.73117314e-05
2.36500000e+00	1.62564517e-03	5.69302151e-05
2.37000000e+00	1.60750477e-03	5.62436791e-05
2.37500000e+00	1.60221936e-03	5.65167023e-05
2.38000000e+00	1.60580214e-03	5.69864171e-05
2.38500000e+00	1.58675410e-03	5.54628232e-05
2.39000000e+00	1.56965907e-03	5.50223651e-05
2.39500000e+00	1.55575589e-03	5.49172152e-05
2.40000000e+00	1.53753708e-03	5.50139038e-05
2.40500000e+00	1.53789464e-03	5.39192700e-05
2.41000000e+00	1.53628533e-03	5.40436642e-05
2.41500000e+00	1.53388577e-03	5.39506965e-05
2.42000000e+00	1.50814033e-03	5.38535723e-05
2.42500000e+00	1.50654622e-03	5.36658886e-05
2.43000000e+00	1.50835421e-03	5.31611779e-05
2.43500000e+00	1.48258439e-03	5.24713002e-05
2.44000000e+00	1.46855132e-03	5.21115850e-05
2.44500000e+00	1.47607436e-03	5.31109146e-05
2.45000000e+00	1.46761092e-03	5.18143432e-05
2.45500000e+00	1.45591145e-03	5.15324357e-05
2.46000000e+00	1.45582717e-03	5.17462869e-05
2.46500000e+00	1.43629977e-03	5.16426603e-05
2.47000000e+00	1.43429340e-03	5.11572066e-05
2.47500000e+00	1.42848149e-03	5.05730142e-05
2.48000000e+00	1.41843383e-03	5.06467363e-05
2.48500000e+00	1.38218043e-03	4.93579842e-05
2.49000000e+00	1.38645904e-03	5.02675791e-05
2.49500000e+00	1.39353319e-03	4.94832403e-05
2.50000000e+00	1.38275205e-03	4.92734077e-05
2.50500000e+00	1.36722202e-03	4.90193020e-05
2.51000000e+00	1.36546554e-03	4.92856131e-05
2.51500000e+00	1.35602083e-03	4.90231297e-05
2.52000000e+00	1.34826048e-03	4.83134271e-05
2.52500000e+00	1.34428272e-03	4.83905853e-05
2.53000000e+00	1.34296596e-03	4.87383882e-05
2.53500000e+00	1.32885993e-03	4.88437169e-05
2.54000000e+00	1.32125712e-03	4.77837062e-05
2.54500000e+00	1.31969810e-03	4.78902576e-05
2.55000000e+00	1.29228944e-03	4.71540798e-05
2.55500000e+00	1.31583391e-03	4.84257189e-05
2.56000000e+00	1.27891003e-03	4.72001697e-05
2.56500000e+00	1.28681800e-03	4.71316393e-05
2.57000000e+00	1.28169192e-03	4.71839985e-05
2.57500000e+00	1.26365952e-03	4.66082751e-05
2.58000000e+00	1.26133048e-03	4.72906927e-05
2.58500000e+00	1.25930424e-03	4.68376429e-05
2.59000000e+00	1.24319333e-03	4.61687375e-05
2.59500000e+00	1.25433150e-03	4.66892498e-05
2.60000000e+00	1.25478300e-03	4.70705466e-05
2.60500000e+00	1.25430551e-03	4.80402702e-05
2.61000000e+00	1.23720355e-03	5.40063236e-05
2.61500000e+00	1.22287681e-03	5.91937933e-05
2.62000000e+00	1.20462144e-03	6.40517801e-05
2.62500000e+00	1.20183203e-03	6.92144134e-05
2.63000000e+00	1.18480127e-03	7.52634796e-05
2.63500000e+00	1.22017997e-03	8.60789167e-05
2.64000000e+00	1.17640609e-03	9.15510141e-05
2.64500000e+00	1.24054429e-03	1.02827878e-04
2.65000000e+00	1.19903051e-03	1.05027026e-04
2.65500000e+00	1.17410603e-03	1.10639774e-04
2.66000000e+00	1.19505804e-03	1.20545021e-04
2.66500000e+00	1.19571868e-03	1.35984491e-04
2.67000000e+00	1.16443360e-03	1.44357129e-04
2.67500000e+00	1.16083867e-03	1.66017360e-04
2.68000000e+00	1.13081200e-03	1.90542328e-04
2.68500000e+00	1.09773735e-03	2.46198518e-04
2.69000000e+00	1.25646164e-03	4.47756948e-04
2.69500000e+00	0.00000000e+00	0.00000000e+00
2.70000000e+00	0.00000000e+00	0.00000000e+00
