% Filename : WDL5_p7_00025_00044.h5
% Date & Time : 30-Oct-2025 16:57:59
% X-ray Energy (keV) : 13.30001
% Exposure Time (s) : 0.500
% Photodiode Value : 143839.000
% I0 of Sample : 0
% I0 of Standard : 1
% 
% q(A^-1)   I(q)    I(q)_SE
8.40000000e-01	0.00000000e+00	0.00000000e+00
8.45000000e-01	2.87847850e-03	5.04815157e-04
8.50000000e-01	2.67174815e-03	2.48191025e-04
8.55000000e-01	2.61616544e-03	2.13621267e-04
8.60000000e-01	2.64198036e-03	1.86873465e-04
8.65000000e-01	2.64327190e-03	1.72111984e-04
8.70000000e-01	2.61408948e-03	1.62619876e-04
8.75000000e-01	2.58138125e-03	1.54392095e-04
8.80000000e-01	2.59542241e-03	1.49985970e-04
8.85000000e-01	2.61500817e-03	1.42996519e-04
8.90000000e-01	2.61709670e-03	1.39937754e-04
8.95000000e-01	2.63377329e-03	1.36874756e-04
9.00000000e-01	2.63327077e-03	1.35668425e-04
9.05000000e-01	2.65773185e-03	1.30866112e-04
9.10000000e-01	2.66290668e-03	1.28688652e-04
9.15000000e-01	2.63879403e-03	1.25501720e-04
9.20000000e-01	2.69498366e-03	1.28050154e-04
9.25000000e-01	2.67942502e-03	1.21817073e-04
9.30000000e-01	2.68679670e-03	1.20890856e-04
9.35000000e-01	2.68427521e-03	1.18408782e-04
9.40000000e-01	2.70691615e-03	1.19835091e-04
9.45000000e-01	2.72102846e-03	1.17447959e-04
9.50000000e-01	2.70674490e-03	1.15223409e-04
9.55000000e-01	2.71574500e-03	1.13439673e-04
9.60000000e-01	2.72710879e-03	1.13899307e-04
9.65000000e-01	2.72309298e-03	1.11993814e-04
9.70000000e-01	2.71880374e-03	1.09998708e-04
9.75000000e-01	2.70739004e-03	1.08320837e-04
9.80000000e-01	2.74046490e-03	1.08748571e-04
9.85000000e-01	2.72668451e-03	1.08298318e-04
9.90000000e-01	2.73061513e-03	1.05115292e-04
9.95000000e-01	2.72420432e-03	1.04358036e-04
1.00000000e+00	2.74857173e-03	1.04753911e-04
1.00500000e+00	2.73799891e-03	1.04436552e-04
1.01000000e+00	2.74396275e-03	1.02493649e-04
1.01500000e+00	2.71904311e-03	1.00519302e-04
1.02000000e+00	2.75170465e-03	1.01715297e-04
1.02500000e+00	2.74458758e-03	1.00222683e-04
1.03000000e+00	2.73015373e-03	9.93773411e-05
1.03500000e+00	2.72786348e-03	9.78597142e-05
1.04000000e+00	2.70572715e-03	9.64660153e-05
1.04500000e+00	2.73158733e-03	9.74755215e-05
1.05000000e+00	2.72053764e-03	9.64446032e-05
1.05500000e+00	2.68212743e-03	9.35976638e-05
1.06000000e+00	2.71373610e-03	9.44876394e-05
1.06500000e+00	2.71663006e-03	9.46077825e-05
1.07000000e+00	2.73561136e-03	9.52673734e-05
1.07500000e+00	2.71243739e-03	9.36994495e-05
1.08000000e+00	2.71768717e-03	9.32303529e-05
1.08500000e+00	2.75620254e-03	9.47608223e-05
1.09000000e+00	2.74431921e-03	9.48951893e-05
1.09500000e+00	2.76231926e-03	9.36066423e-05
1.10000000e+00	2.74857049e-03	9.37526081e-05
1.10500000e+00	2.77823111e-03	9.49874272e-05
1.11000000e+00	2.76621548e-03	9.46786730e-05
1.11500000e+00	2.80521465e-03	9.53508439e-05
1.12000000e+00	2.79349069e-03	9.53141057e-05
1.12500000e+00	2.81032459e-03	9.56358312e-05
1.13000000e+00	2.79383953e-03	9.62617958e-05
1.13500000e+00	2.81775200e-03	9.57826513e-05
1.14000000e+00	2.80862951e-03	9.53605281e-05
1.14500000e+00	2.82591102e-03	9.67428280e-05
1.15000000e+00	2.80721521e-03	9.65991963e-05
1.15500000e+00	2.83547487e-03	9.65445583e-05
1.16000000e+00	2.83707964e-03	9.69666769e-05
1.16500000e+00	2.82236166e-03	9.63461612e-05
1.17000000e+00	2.83676614e-03	9.80594855e-05
1.17500000e+00	2.84447407e-03	9.68857170e-05
1.18000000e+00	2.86960830e-03	9.82291900e-05
1.18500000e+00	2.87299544e-03	9.81551287e-05
1.19000000e+00	2.87702720e-03	9.93977470e-05
1.19500000e+00	2.87918373e-03	9.81767365e-05
1.20000000e+00	2.89806794e-03	9.94483318e-05
1.20500000e+00	2.88839431e-03	9.88294376e-05
1.21000000e+00	2.89415142e-03	1.00305516e-04
1.21500000e+00	2.90491799e-03	9.90453946e-05
1.22000000e+00	2.89782219e-03	9.89108874e-05
1.22500000e+00	2.90156529e-03	9.95224154e-05
1.23000000e+00	2.89717693e-03	1.00203490e-04
1.23500000e+00	2.89954628e-03	9.95867239e-05
1.24000000e+00	2.90596783e-03	9.93679405e-05
1.24500000e+00	2.90059109e-03	9.98190969e-05
1.25000000e+00	2.89620770e-03	1.00203291e-04
1.25500000e+00	2.91564636e-03	9.97250540e-05
1.26000000e+00	2.91771342e-03	1.00460095e-04
1.26500000e+00	2.91608289e-03	9.99177074e-05
1.27000000e+00	2.93025410e-03	1.01949351e-04
1.27500000e+00	2.93005807e-03	1.00910382e-04
1.28000000e+00	2.92380506e-03	1.00085748e-04
1.28500000e+00	2.90996810e-03	1.00195865e-04
1.29000000e+00	2.91032919e-03	1.01081689e-04
1.29500000e+00	2.93267469e-03	1.00782629e-04
1.30000000e+00	2.92589392e-03	1.00339866e-04
1.30500000e+00	2.93194505e-03	1.00982555e-04
1.31000000e+00	2.91114244e-03	1.01538653e-04
1.31500000e+00	2.92387246e-03	1.00726183e-04
1.32000000e+00	2.93431168e-03	1.00886061e-04
1.32500000e+00	2.92600180e-03	1.00913747e-04
1.33000000e+00	2.94897534e-03	1.02914842e-04
1.33500000e+00	2.92042595e-03	1.00561470e-04
1.34000000e+00	2.93932693e-03	1.01263107e-04
1.34500000e+00	2.92876042e-03	1.01293396e-04
1.35000000e+00	2.91156623e-03	1.01601742e-04
1.35500000e+00	2.93849826e-03	1.01223668e-04
1.36000000e+00	2.93716032e-03	1.01012708e-04
1.36500000e+00	2.91078564e-03	1.00493972e-04
1.37000000e+00	2.92664639e-03	1.02489194e-04
1.37500000e+00	2.91727232e-03	1.00567822e-04
1.38000000e+00	2.93103393e-03	1.01333602e-04
1.38500000e+00	2.93803218e-03	1.02078318e-04
1.39000000e+00	2.90067084e-03	1.01408031e-04
1.39500000e+00	2.92149101e-03	1.00576384e-04
1.40000000e+00	2.94246816e-03	1.04439121e-04
1.40500000e+00	2.90121645e-03	1.10805164e-04
1.41000000e+00	2.86503949e-03	1.14558134e-04
1.41500000e+00	2.83645180e-03	1.17551267e-04
1.42000000e+00	2.84389407e-03	1.22681306e-04
1.42500000e+00	2.82703898e-03	1.25577160e-04
1.43000000e+00	2.81486316e-03	1.29690631e-04
1.43500000e+00	2.80772620e-03	1.33562093e-04
1.44000000e+00	2.83529922e-03	1.39942494e-04
1.44500000e+00	2.76228549e-03	1.39865131e-04
1.45000000e+00	2.86313944e-03	1.40281659e-04
1.45500000e+00	2.86638656e-03	1.25976447e-04
1.46000000e+00	2.89296728e-03	1.24200351e-04
1.46500000e+00	2.88075855e-03	1.21579563e-04
1.47000000e+00	2.86672917e-03	1.20709986e-04
1.47500000e+00	2.87694614e-03	1.17596105e-04
1.48000000e+00	2.84287280e-03	1.14939682e-04
1.48500000e+00	2.86311742e-03	1.15908471e-04
1.49000000e+00	2.85646562e-03	1.15888557e-04
1.49500000e+00	2.88682324e-03	1.14613842e-04
1.50000000e+00	2.85886662e-03	1.13122667e-04
1.50500000e+00	2.87250208e-03	1.14188227e-04
1.51000000e+00	2.86139429e-03	1.13899707e-04
1.51500000e+00	2.89284680e-03	1.13356912e-04
1.52000000e+00	2.88546470e-03	1.12598519e-04
1.52500000e+00	2.88234010e-03	1.12421259e-04
1.53000000e+00	2.88858734e-03	1.13306531e-04
1.53500000e+00	2.87529954e-03	1.09684465e-04
1.54000000e+00	2.87347249e-03	1.09417492e-04
1.54500000e+00	2.85410179e-03	1.08358756e-04
1.55000000e+00	2.86562446e-03	1.08451653e-04
1.55500000e+00	2.82568099e-03	1.04555273e-04
1.56000000e+00	2.82048936e-03	1.04666973e-04
1.56500000e+00	2.83443008e-03	1.04707268e-04
1.57000000e+00	2.81494563e-03	1.03148655e-04
1.57500000e+00	2.78491289e-03	1.00226714e-04
1.58000000e+00	2.77825206e-03	9.97557014e-05
1.58500000e+00	2.76324343e-03	9.91836797e-05
1.59000000e+00	2.76895105e-03	9.95411905e-05
1.59500000e+00	2.76364649e-03	9.74223388e-05
1.60000000e+00	2.76790911e-03	9.74160294e-05
1.60500000e+00	2.74944925e-03	9.68780453e-05
1.61000000e+00	2.76220997e-03	9.69144970e-05
1.61500000e+00	2.74070500e-03	9.52506555e-05
1.62000000e+00	2.75076243e-03	9.60937548e-05
1.62500000e+00	2.72327188e-03	9.61441179e-05
1.63000000e+00	2.72251600e-03	9.50423593e-05
1.63500000e+00	2.71644456e-03	9.49205450e-05
1.64000000e+00	2.72996259e-03	9.54661153e-05
1.64500000e+00	2.71126570e-03	9.57962399e-05
1.65000000e+00	2.70209233e-03	9.45463940e-05
1.65500000e+00	2.67811341e-03	9.35530323e-05
1.66000000e+00	2.68671456e-03	9.39173744e-05
1.66500000e+00	2.70014569e-03	9.59611158e-05
1.67000000e+00	2.68337120e-03	9.33900660e-05
1.67500000e+00	2.68080413e-03	9.36089161e-05
1.68000000e+00	2.66664873e-03	9.33995779e-05
1.68500000e+00	2.66355075e-03	9.47891908e-05
1.69000000e+00	2.65555602e-03	9.26490706e-05
1.69500000e+00	2.64865361e-03	9.23178241e-05
1.70000000e+00	2.64682712e-03	9.32614136e-05
1.70500000e+00	2.63201827e-03	9.31326381e-05
1.71000000e+00	2.62246349e-03	9.17097657e-05
1.71500000e+00	2.62662348e-03	9.17890479e-05
1.72000000e+00	2.62277738e-03	9.23549994e-05
1.72500000e+00	2.60667734e-03	9.23205756e-05
1.73000000e+00	2.58852542e-03	9.04806829e-05
1.73500000e+00	2.61445311e-03	9.16360591e-05
1.74000000e+00	2.59477485e-03	9.11826931e-05
1.74500000e+00	2.58749274e-03	9.19825742e-05
1.75000000e+00	2.58314221e-03	9.00056258e-05
1.75500000e+00	2.57277082e-03	9.02630750e-05
1.76000000e+00	2.58041385e-03	9.05018036e-05
1.76500000e+00	2.54490874e-03	9.04161664e-05
1.77000000e+00	2.56189566e-03	8.95481486e-05
1.77500000e+00	2.55779633e-03	8.95735448e-05
1.78000000e+00	2.55529314e-03	8.97360823e-05
1.78500000e+00	2.52527898e-03	8.96693876e-05
1.79000000e+00	2.53940201e-03	8.86327428e-05
1.79500000e+00	2.53450894e-03	8.88189698e-05
1.80000000e+00	2.52220705e-03	8.87943779e-05
1.80500000e+00	2.51862606e-03	8.92010843e-05
1.81000000e+00	2.49949436e-03	8.73066485e-05
1.81500000e+00	2.50740858e-03	8.76491176e-05
1.82000000e+00	2.47063266e-03	8.69104131e-05
1.82500000e+00	2.48273475e-03	8.79144170e-05
1.83000000e+00	2.48566365e-03	8.68999299e-05
1.83500000e+00	2.48904445e-03	8.71752927e-05
1.84000000e+00	2.45193440e-03	8.63365807e-05
1.84500000e+00	2.42919173e-03	8.60263552e-05
1.85000000e+00	2.42514746e-03	8.48612536e-05
1.85500000e+00	2.43118139e-03	8.51438425e-05
1.86000000e+00	2.42067576e-03	8.53503371e-05
1.86500000e+00	2.43015852e-03	8.59594299e-05
1.87000000e+00	2.42460816e-03	8.47948072e-05
1.87500000e+00	2.40345760e-03	8.42518486e-05
1.88000000e+00	2.40179368e-03	8.46266963e-05
1.88500000e+00	2.38226769e-03	8.44850559e-05
1.89000000e+00	2.40240168e-03	8.39119049e-05
1.89500000e+00	2.38990604e-03	8.39916143e-05
1.90000000e+00	2.36670019e-03	8.34233113e-05
1.90500000e+00	2.37715456e-03	8.38007262e-05
1.91000000e+00	2.36433658e-03	8.28766795e-05
1.91500000e+00	2.35319946e-03	8.24875277e-05
1.92000000e+00	2.34020771e-03	8.24959782e-05
1.92500000e+00	2.32623269e-03	8.21096613e-05
1.93000000e+00	2.32990309e-03	8.14692574e-05
1.93500000e+00	2.31169283e-03	8.10707490e-05
1.94000000e+00	2.31264218e-03	8.18959986e-05
1.94500000e+00	2.30078328e-03	8.10505146e-05
1.95000000e+00	2.30098852e-03	8.04281565e-05
1.95500000e+00	2.28775501e-03	8.03146555e-05
1.96000000e+00	2.27999709e-03	8.04444134e-05
1.96500000e+00	2.28203273e-03	8.05952976e-05
1.97000000e+00	2.26595629e-03	7.91233528e-05
1.97500000e+00	2.25012441e-03	7.90952310e-05
1.98000000e+00	2.25843860e-03	7.96980804e-05
1.98500000e+00	2.25986490e-03	7.98485732e-05
1.99000000e+00	2.24468398e-03	7.83568084e-05
1.99500000e+00	2.24293236e-03	7.86747069e-05
2.00000000e+00	2.22436035e-03	7.84864398e-05
2.00500000e+00	2.24377378e-03	7.94048910e-05
2.01000000e+00	2.22087858e-03	8.62396464e-05
2.01500000e+00	2.20428758e-03	9.08815438e-05
2.02000000e+00	2.16403596e-03	9.51638749e-05
2.02500000e+00	2.18878095e-03	1.00026601e-04
2.03000000e+00	2.17220252e-03	1.05157211e-04
2.03500000e+00	2.12854903e-03	1.07680227e-04
2.04000000e+00	2.12879761e-03	1.12506415e-04
2.04500000e+00	2.07790506e-03	1.15513034e-04
2.05000000e+00	2.10862857e-03	1.23222818e-04
2.05500000e+00	2.10861232e-03	1.20698759e-04
2.06000000e+00	2.15941875e-03	1.07447757e-04
2.06500000e+00	2.13330749e-03	1.01430572e-04
2.07000000e+00	2.11254822e-03	9.50292197e-05
2.07500000e+00	2.10651993e-03	9.27475982e-05
2.08000000e+00	2.11013798e-03	9.27694992e-05
2.08500000e+00	2.11163600e-03	9.19948094e-05
2.09000000e+00	2.11772051e-03	8.93767584e-05
2.09500000e+00	2.09786178e-03	8.76142214e-05
2.10000000e+00	2.08840085e-03	8.67554860e-05
2.10500000e+00	2.09013862e-03	8.64141441e-05
2.11000000e+00	2.07674982e-03	8.27436433e-05
2.11500000e+00	2.07877298e-03	8.21535262e-05
2.12000000e+00	2.05584410e-03	8.07483232e-05
2.12500000e+00	2.05921833e-03	8.06244457e-05
2.13000000e+00	2.02292930e-03	7.59521217e-05
2.13500000e+00	2.01061703e-03	7.45755233e-05
2.14000000e+00	1.97295366e-03	7.25546563e-05
2.14500000e+00	1.95783610e-03	7.21715274e-05
2.15000000e+00	1.98909586e-03	7.09507927e-05
2.15500000e+00	1.95656465e-03	6.98799059e-05
2.16000000e+00	1.94398143e-03	6.90832496e-05
2.16500000e+00	1.96695742e-03	7.03965147e-05
2.17000000e+00	1.93414969e-03	6.75099193e-05
2.17500000e+00	1.93454192e-03	6.77330296e-05
2.18000000e+00	1.91207539e-03	6.71402575e-05
2.18500000e+00	1.92311313e-03	6.78550681e-05
2.19000000e+00	1.89945183e-03	6.68904355e-05
2.19500000e+00	1.88514081e-03	6.60515668e-05
2.20000000e+00	1.88778507e-03	6.62668478e-05
2.20500000e+00	1.88927754e-03	6.64945795e-05
2.21000000e+00	1.86685909e-03	6.60744605e-05
2.21500000e+00	1.85408885e-03	6.49247655e-05
2.22000000e+00	1.84506154e-03	6.44703853e-05
2.22500000e+00	1.83104402e-03	6.45615640e-05
2.23000000e+00	1.81117895e-03	6.42858501e-05
2.23500000e+00	1.79604205e-03	6.28502548e-05
2.24000000e+00	1.78561229e-03	6.25570620e-05
2.24500000e+00	1.77879014e-03	6.26026374e-05
2.25000000e+00	1.79181554e-03	6.36917558e-05
2.25500000e+00	1.75126766e-03	6.10442911e-05
2.26000000e+00	1.73180025e-03	6.06093505e-05
2.26500000e+00	1.76264311e-03	6.18794488e-05
2.27000000e+00	1.72622706e-03	6.14999822e-05
2.27500000e+00	1.72024470e-03	6.00789202e-05
2.28000000e+00	1.69708201e-03	5.93117044e-05
2.28500000e+00	1.68946774e-03	5.94236514e-05
2.29000000e+00	1.68435383e-03	5.96059068e-05
2.29500000e+00	1.65950689e-03	5.85017774e-05
2.30000000e+00	1.65892668e-03	5.79637203e-05
2.30500000e+00	1.64565665e-03	5.76170722e-05
2.31000000e+00	1.63692913e-03	5.76266275e-05
2.31500000e+00	1.63235341e-03	5.79551176e-05
2.32000000e+00	1.61739956e-03	5.62364940e-05
2.32500000e+00	1.61097951e-03	5.64942292e-05
2.33000000e+00	1.60463373e-03	5.64090687e-05
2.33500000e+00	1.58875827e-03	5.63596712e-05
2.34000000e+00	1.57163358e-03	5.48335224e-05
2.34500000e+00	1.57791202e-03	5.50480991e-05
2.35000000e+00	1.55532700e-03	5.44887170e-05
2.35500000e+00	1.55054965e-03	5.50199755e-05
2.36000000e+00	1.53515152e-03	5.37058984e-05
2.36500000e+00	1.51589833e-03	5.30394673e-05
2.37000000e+00	1.52033049e-03	5.31914565e-05
2.37500000e+00	1.51368330e-03	5.34255683e-05
2.38000000e+00	1.50106855e-03	5.32751168e-05
2.38500000e+00	1.49429572e-03	5.22941865e-05
2.39000000e+00	1.47662998e-03	5.18235100e-05
2.39500000e+00	1.48956641e-03	5.24539412e-05
2.40000000e+00	1.45742552e-03	5.21578642e-05
2.40500000e+00	1.45925194e-03	5.11213650e-05
2.41000000e+00	1.44787915e-03	5.09387866e-05
2.41500000e+00	1.44054241e-03	5.06872900e-05
2.42000000e+00	1.45400922e-03	5.17979528e-05
2.42500000e+00	1.41747701e-03	5.04735404e-05
2.43000000e+00	1.41125374e-03	4.97378548e-05
2.43500000e+00	1.41358234e-03	5.00240924e-05
2.44000000e+00	1.40216272e-03	4.97376564e-05
2.44500000e+00	1.37559997e-03	4.93945879e-05
2.45000000e+00	1.37271640e-03	4.84592276e-05
2.45500000e+00	1.37443487e-03	4.86331846e-05
2.46000000e+00	1.35653273e-03	4.82904704e-05
2.46500000e+00	1.36679958e-03	4.91537323e-05
2.47000000e+00	1.33934827e-03	4.76748287e-05
2.47500000e+00	1.34099439e-03	4.74832951e-05
2.48000000e+00	1.32618163e-03	4.73880623e-05
2.48500000e+00	1.32224233e-03	4.72043451e-05
2.49000000e+00	1.30771647e-03	4.73473559e-05
2.49500000e+00	1.29988250e-03	4.61581550e-05
2.50000000e+00	1.28922347e-03	4.59544856e-05
2.50500000e+00	1.28942584e-03	4.61719651e-05
2.51000000e+00	1.28225531e-03	4.62234359e-05
2.51500000e+00	1.28870334e-03	4.66226767e-05
2.52000000e+00	1.29525021e-03	4.63951892e-05
2.52500000e+00	1.26150661e-03	4.53530635e-05
2.53000000e+00	1.26787715e-03	4.60783325e-05
2.53500000e+00	1.23530220e-03	4.54451095e-05
2.54000000e+00	1.24855601e-03	4.51607608e-05
2.54500000e+00	1.24003334e-03	4.49725803e-05
2.55000000e+00	1.22542181e-03	4.46605980e-05
2.55500000e+00	1.21187748e-03	4.46814102e-05
2.56000000e+00	1.22029054e-03	4.51432712e-05
2.56500000e+00	1.20615975e-03	4.41440710e-05
2.57000000e+00	1.19189414e-03	4.39431563e-05
2.57500000e+00	1.17924180e-03	4.35495256e-05
2.58000000e+00	1.18049359e-03	4.43101001e-05
2.58500000e+00	1.18303217e-03	4.40000615e-05
2.59000000e+00	1.17662388e-03	4.36203548e-05
2.59500000e+00	1.16710056e-03	4.34709883e-05
2.60000000e+00	1.15458162e-03	4.33490815e-05
2.60500000e+00	1.16790093e-03	4.47652829e-05
2.61000000e+00	1.15841809e-03	5.06334667e-05
2.61500000e+00	1.14782763e-03	5.55371561e-05
2.62000000e+00	1.13516741e-03	6.04373815e-05
2.62500000e+00	1.13685025e-03	6.52192567e-05
2.63000000e+00	1.11949937e-03	7.10563097e-05
2.63500000e+00	1.13316791e-03	8.00657840e-05
2.64000000e+00	1.11565943e-03	8.70044964e-05
2.64500000e+00	1.09267632e-03	9.06725249e-05
2.65000000e+00	1.09880370e-03	9.66657388e-05
2.65500000e+00	1.09246283e-03	1.02848125e-04
2.66000000e+00	1.08999732e-03	1.10621665e-04
2.66500000e+00	1.11235667e-03	1.26721946e-04
2.67000000e+00	1.07067379e-03	1.31836310e-04
2.67500000e+00	1.06454046e-03	1.52997011e-04
2.68000000e+00	1.07091680e-03	1.78177781e-04
2.68500000e+00	1.03826132e-03	2.30208150e-04
2.69000000e+00	1.10851010e-03	4.02929510e-04
2.69500000e+00	0.00000000e+00	0.00000000e+00
2.70000000e+00	0.00000000e+00	0.00000000e+00
