% Filename : WDL5_p7_00025_00038.h5
% Date & Time : 30-Oct-2025 16:57:37
% X-ray Energy (keV) : 13.30001
% Exposure Time (s) : 0.500
% Photodiode Value : 144419.000
% I0 of Sample : 0
% I0 of Standard : 1
% 
% q(A^-1)   I(q)    I(q)_SE
8.40000000e-01	0.00000000e+00	0.00000000e+00
8.45000000e-01	2.72522606e-03	4.78698712e-04
8.50000000e-01	2.66561814e-03	2.47523894e-04
8.55000000e-01	2.59925890e-03	2.12471004e-04
8.60000000e-01	2.58207231e-03	1.82752925e-04
8.65000000e-01	2.58442254e-03	1.68471751e-04
8.70000000e-01	2.56775941e-03	1.59522731e-04
8.75000000e-01	2.55978079e-03	1.53113846e-04
8.80000000e-01	2.59841657e-03	1.50279273e-04
8.85000000e-01	2.62250910e-03	1.43400204e-04
8.90000000e-01	2.60844279e-03	1.39561545e-04
8.95000000e-01	2.65089581e-03	1.37860435e-04
9.00000000e-01	2.67860601e-03	1.38096918e-04
9.05000000e-01	2.62378815e-03	1.29188430e-04
9.10000000e-01	2.65125056e-03	1.28161553e-04
9.15000000e-01	2.67058251e-03	1.27097139e-04
9.20000000e-01	2.66987605e-03	1.26896523e-04
9.25000000e-01	2.66096759e-03	1.21028957e-04
9.30000000e-01	2.69300631e-03	1.21155489e-04
9.35000000e-01	2.69713345e-03	1.18957844e-04
9.40000000e-01	2.69140782e-03	1.19154903e-04
9.45000000e-01	2.70138707e-03	1.16656044e-04
9.50000000e-01	2.71572626e-03	1.15536752e-04
9.55000000e-01	2.70133133e-03	1.12792252e-04
9.60000000e-01	2.70289238e-03	1.13118288e-04
9.65000000e-01	2.70920676e-03	1.11371987e-04
9.70000000e-01	2.71622461e-03	1.09780680e-04
9.75000000e-01	2.71019060e-03	1.08456059e-04
9.80000000e-01	2.74373718e-03	1.08830321e-04
9.85000000e-01	2.71965874e-03	1.07957719e-04
9.90000000e-01	2.73447590e-03	1.05231761e-04
9.95000000e-01	2.74888514e-03	1.05275830e-04
1.00000000e+00	2.73297330e-03	1.04210929e-04
1.00500000e+00	2.72324658e-03	1.03926161e-04
1.01000000e+00	2.73957609e-03	1.02307155e-04
1.01500000e+00	2.74288696e-03	1.01366857e-04
1.02000000e+00	2.74036524e-03	1.01239924e-04
1.02500000e+00	2.70858468e-03	9.88102832e-05
1.03000000e+00	2.72342872e-03	9.91770294e-05
1.03500000e+00	2.72045150e-03	9.75594546e-05
1.04000000e+00	2.71792044e-03	9.69923267e-05
1.04500000e+00	2.71579290e-03	9.68345796e-05
1.05000000e+00	2.68997006e-03	9.53932692e-05
1.05500000e+00	2.68102259e-03	9.36199715e-05
1.06000000e+00	2.70529665e-03	9.42990584e-05
1.06500000e+00	2.68532403e-03	9.37212753e-05
1.07000000e+00	2.69522576e-03	9.36998339e-05
1.07500000e+00	2.72365963e-03	9.40753269e-05
1.08000000e+00	2.71824640e-03	9.33775073e-05
1.08500000e+00	2.72953891e-03	9.38611048e-05
1.09000000e+00	2.72477983e-03	9.41620722e-05
1.09500000e+00	2.74330527e-03	9.29546816e-05
1.10000000e+00	2.76687739e-03	9.42112302e-05
1.10500000e+00	2.74282290e-03	9.38401049e-05
1.11000000e+00	2.74944558e-03	9.41929182e-05
1.11500000e+00	2.76503647e-03	9.40123836e-05
1.12000000e+00	2.79967766e-03	9.55429571e-05
1.12500000e+00	2.77752800e-03	9.45606205e-05
1.13000000e+00	2.79782715e-03	9.63791003e-05
1.13500000e+00	2.79527244e-03	9.51511606e-05
1.14000000e+00	2.80034662e-03	9.51768977e-05
1.14500000e+00	2.80957303e-03	9.62772949e-05
1.15000000e+00	2.82895080e-03	9.73651164e-05
1.15500000e+00	2.83552185e-03	9.66815924e-05
1.16000000e+00	2.83383446e-03	9.68031727e-05
1.16500000e+00	2.84723761e-03	9.71333103e-05
1.17000000e+00	2.82563893e-03	9.76135768e-05
1.17500000e+00	2.83566537e-03	9.65009707e-05
1.18000000e+00	2.85939137e-03	9.77909707e-05
1.18500000e+00	2.85530825e-03	9.75460487e-05
1.19000000e+00	2.83610997e-03	9.79114649e-05
1.19500000e+00	2.85065106e-03	9.72357860e-05
1.20000000e+00	2.85969048e-03	9.80495301e-05
1.20500000e+00	2.87263787e-03	9.84300890e-05
1.21000000e+00	2.85908784e-03	9.91340859e-05
1.21500000e+00	2.88861388e-03	9.86083213e-05
1.22000000e+00	2.86784833e-03	9.79712452e-05
1.22500000e+00	2.88139365e-03	9.88625398e-05
1.23000000e+00	2.88483247e-03	9.96778751e-05
1.23500000e+00	2.89667734e-03	9.94712948e-05
1.24000000e+00	2.89238367e-03	9.88951491e-05
1.24500000e+00	2.88494689e-03	9.93442736e-05
1.25000000e+00	2.89575272e-03	1.00234189e-04
1.25500000e+00	2.90992566e-03	9.95293214e-05
1.26000000e+00	2.89683894e-03	9.96922738e-05
1.26500000e+00	2.91079447e-03	9.98037658e-05
1.27000000e+00	2.89435934e-03	1.00652176e-04
1.27500000e+00	2.91765145e-03	1.00460761e-04
1.28000000e+00	2.92934943e-03	1.00266589e-04
1.28500000e+00	2.88233089e-03	9.92301568e-05
1.29000000e+00	2.91496124e-03	1.01166954e-04
1.29500000e+00	2.90588580e-03	9.98509616e-05
1.30000000e+00	2.91307666e-03	9.99676295e-05
1.30500000e+00	2.93165777e-03	1.00995621e-04
1.31000000e+00	2.93114311e-03	1.02243677e-04
1.31500000e+00	2.93427701e-03	1.01020863e-04
1.32000000e+00	2.91422346e-03	1.00240839e-04
1.32500000e+00	2.89771197e-03	9.99475318e-05
1.33000000e+00	2.91580406e-03	1.01813860e-04
1.33500000e+00	2.90717950e-03	1.00146961e-04
1.34000000e+00	2.90932705e-03	1.00280285e-04
1.34500000e+00	2.90953097e-03	1.00679511e-04
1.35000000e+00	2.89622944e-03	1.01113771e-04
1.35500000e+00	2.87253900e-03	9.90050952e-05
1.36000000e+00	2.92085198e-03	1.00461072e-04
1.36500000e+00	2.89560263e-03	9.98530049e-05
1.37000000e+00	2.91063298e-03	1.01909861e-04
1.37500000e+00	2.90492787e-03	1.00188370e-04
1.38000000e+00	2.91557199e-03	1.00821115e-04
1.38500000e+00	2.90824845e-03	1.01039598e-04
1.39000000e+00	2.89998157e-03	1.01404229e-04
1.39500000e+00	2.89864721e-03	9.98947342e-05
1.40000000e+00	2.92529144e-03	1.03802985e-04
1.40500000e+00	2.88543857e-03	1.10220148e-04
1.41000000e+00	2.88002440e-03	1.15141037e-04
1.41500000e+00	2.84572343e-03	1.17960675e-04
1.42000000e+00	2.82017551e-03	1.21592214e-04
1.42500000e+00	2.82373569e-03	1.25392189e-04
1.43000000e+00	2.79447697e-03	1.28807567e-04
1.43500000e+00	2.78879074e-03	1.32566136e-04
1.44000000e+00	2.77456245e-03	1.36805412e-04
1.44500000e+00	2.78206994e-03	1.40895849e-04
1.45000000e+00	2.82450840e-03	1.38396319e-04
1.45500000e+00	2.87025941e-03	1.26298524e-04
1.46000000e+00	2.84894736e-03	1.22398755e-04
1.46500000e+00	2.87491129e-03	1.21288753e-04
1.47000000e+00	2.84231229e-03	1.19674165e-04
1.47500000e+00	2.83966474e-03	1.16055138e-04
1.48000000e+00	2.86055793e-03	1.15676641e-04
1.48500000e+00	2.85120370e-03	1.15456623e-04
1.49000000e+00	2.85209467e-03	1.15730595e-04
1.49500000e+00	2.87365938e-03	1.13968831e-04
1.50000000e+00	2.86612205e-03	1.13315181e-04
1.50500000e+00	2.83575608e-03	1.12779410e-04
1.51000000e+00	2.83392141e-03	1.12800513e-04
1.51500000e+00	2.86524103e-03	1.12272106e-04
1.52000000e+00	2.87163214e-03	1.12105342e-04
1.52500000e+00	2.85118196e-03	1.11226215e-04
1.53000000e+00	2.87863729e-03	1.12878571e-04
1.53500000e+00	2.86139440e-03	1.09063584e-04
1.54000000e+00	2.84761078e-03	1.08335285e-04
1.54500000e+00	2.84823653e-03	1.08118303e-04
1.55000000e+00	2.84016311e-03	1.07542890e-04
1.55500000e+00	2.83371104e-03	1.04897875e-04
1.56000000e+00	2.80091854e-03	1.03904094e-04
1.56500000e+00	2.79827154e-03	1.03328153e-04
1.57000000e+00	2.78613005e-03	1.02106689e-04
1.57500000e+00	2.77332208e-03	9.98235686e-05
1.58000000e+00	2.75106562e-03	9.87458362e-05
1.58500000e+00	2.77726943e-03	9.97956148e-05
1.59000000e+00	2.74760209e-03	9.87267959e-05
1.59500000e+00	2.74767749e-03	9.68081352e-05
1.60000000e+00	2.74178844e-03	9.65656794e-05
1.60500000e+00	2.74800541e-03	9.67963198e-05
1.61000000e+00	2.74035603e-03	9.60904159e-05
1.61500000e+00	2.73494348e-03	9.50812434e-05
1.62000000e+00	2.72152498e-03	9.50469347e-05
1.62500000e+00	2.70773561e-03	9.56756550e-05
1.63000000e+00	2.68875320e-03	9.39423729e-05
1.63500000e+00	2.70619897e-03	9.45846677e-05
1.64000000e+00	2.70165271e-03	9.44725826e-05
1.64500000e+00	2.68631527e-03	9.49789965e-05
1.65000000e+00	2.68871757e-03	9.39740788e-05
1.65500000e+00	2.66054419e-03	9.28919129e-05
1.66000000e+00	2.65209862e-03	9.26847601e-05
1.66500000e+00	2.67784822e-03	9.51732498e-05
1.67000000e+00	2.67724817e-03	9.32499039e-05
1.67500000e+00	2.68227591e-03	9.35972933e-05
1.68000000e+00	2.66149810e-03	9.31268934e-05
1.68500000e+00	2.65334091e-03	9.44276469e-05
1.69000000e+00	2.64530132e-03	9.22594088e-05
1.69500000e+00	2.64414724e-03	9.20966270e-05
1.70000000e+00	2.63311037e-03	9.29090215e-05
1.70500000e+00	2.60711891e-03	9.22955675e-05
1.71000000e+00	2.62929406e-03	9.18869599e-05
1.71500000e+00	2.61305056e-03	9.12396179e-05
1.72000000e+00	2.59803866e-03	9.13915222e-05
1.72500000e+00	2.59096195e-03	9.17633211e-05
1.73000000e+00	2.57926507e-03	9.01461682e-05
1.73500000e+00	2.57877433e-03	9.03687192e-05
1.74000000e+00	2.57878127e-03	9.06303017e-05
1.74500000e+00	2.56635365e-03	9.11698166e-05
1.75000000e+00	2.54914139e-03	8.88499810e-05
1.75500000e+00	2.56410613e-03	8.99970376e-05
1.76000000e+00	2.54300372e-03	8.92032115e-05
1.76500000e+00	2.54250577e-03	9.03074206e-05
1.77000000e+00	2.53735557e-03	8.85995863e-05
1.77500000e+00	2.53611925e-03	8.88682356e-05
1.78000000e+00	2.51788679e-03	8.84017448e-05
1.78500000e+00	2.50036514e-03	8.88518107e-05
1.79000000e+00	2.50694769e-03	8.75059462e-05
1.79500000e+00	2.50023993e-03	8.75799957e-05
1.80000000e+00	2.49874605e-03	8.80166717e-05
1.80500000e+00	2.48824448e-03	8.81875528e-05
1.81000000e+00	2.47788490e-03	8.65668007e-05
1.81500000e+00	2.48179613e-03	8.67419736e-05
1.82000000e+00	2.46594454e-03	8.67693106e-05
1.82500000e+00	2.47005503e-03	8.73989566e-05
1.83000000e+00	2.46262301e-03	8.60907257e-05
1.83500000e+00	2.45214688e-03	8.58849164e-05
1.84000000e+00	2.45322607e-03	8.64033452e-05
1.84500000e+00	2.42104445e-03	8.57576886e-05
1.85000000e+00	2.42658234e-03	8.49996917e-05
1.85500000e+00	2.42703078e-03	8.50427750e-05
1.86000000e+00	2.40945231e-03	8.49369902e-05
1.86500000e+00	2.40753280e-03	8.50362892e-05
1.87000000e+00	2.39826036e-03	8.38558026e-05
1.87500000e+00	2.41278997e-03	8.46073331e-05
1.88000000e+00	2.39270787e-03	8.42491467e-05
1.88500000e+00	2.37657436e-03	8.42957305e-05
1.89000000e+00	2.39412461e-03	8.36705283e-05
1.89500000e+00	2.37881576e-03	8.35760820e-05
1.90000000e+00	2.36371487e-03	8.33837855e-05
1.90500000e+00	2.36152444e-03	8.32313300e-05
1.91000000e+00	2.34307200e-03	8.21060750e-05
1.91500000e+00	2.32649998e-03	8.15807121e-05
1.92000000e+00	2.36593266e-03	8.34008728e-05
1.92500000e+00	2.31635934e-03	8.17424714e-05
1.93000000e+00	2.29886309e-03	8.04282380e-05
1.93500000e+00	2.32843889e-03	8.16584866e-05
1.94000000e+00	2.30553055e-03	8.14751316e-05
1.94500000e+00	2.27794705e-03	8.03464750e-05
1.95000000e+00	2.30569856e-03	8.05818653e-05
1.95500000e+00	2.27402677e-03	7.97360423e-05
1.96000000e+00	2.28934191e-03	8.08745211e-05
1.96500000e+00	2.26247465e-03	7.98979241e-05
1.97000000e+00	2.27294939e-03	7.93060231e-05
1.97500000e+00	2.24834338e-03	7.89914209e-05
1.98000000e+00	2.23447989e-03	7.88142070e-05
1.98500000e+00	2.25422123e-03	7.96603563e-05
1.99000000e+00	2.25328997e-03	7.85998400e-05
1.99500000e+00	2.23153536e-03	7.82748497e-05
2.00000000e+00	2.21502196e-03	7.82271088e-05
2.00500000e+00	2.22468937e-03	7.87629971e-05
2.01000000e+00	2.20797124e-03	8.57234457e-05
2.01500000e+00	2.16577980e-03	8.93793046e-05
2.02000000e+00	2.16296586e-03	9.51777579e-05
2.02500000e+00	2.13302848e-03	9.74536943e-05
2.03000000e+00	2.13233622e-03	1.03184199e-04
2.03500000e+00	2.14179582e-03	1.08278410e-04
2.04000000e+00	2.14247720e-03	1.13157240e-04
2.04500000e+00	2.05536407e-03	1.14300098e-04
2.05000000e+00	2.10406989e-03	1.22649410e-04
2.05500000e+00	2.09449126e-03	1.19909869e-04
2.06000000e+00	2.14389810e-03	1.06713327e-04
2.06500000e+00	2.13250778e-03	1.01480597e-04
2.07000000e+00	2.09910995e-03	9.45116455e-05
2.07500000e+00	2.09530304e-03	9.22488340e-05
2.08000000e+00	2.13430677e-03	9.36467949e-05
2.08500000e+00	2.10916533e-03	9.18328509e-05
2.09000000e+00	2.10645920e-03	8.90428153e-05
2.09500000e+00	2.08898569e-03	8.73793548e-05
2.10000000e+00	2.09266830e-03	8.68630231e-05
2.10500000e+00	2.09403001e-03	8.64852708e-05
2.11000000e+00	2.06210187e-03	8.22687990e-05
2.11500000e+00	2.04454474e-03	8.06688790e-05
2.12000000e+00	2.04704876e-03	8.03183094e-05
2.12500000e+00	2.05789692e-03	8.05830519e-05
2.13000000e+00	1.99835254e-03	7.50385408e-05
2.13500000e+00	2.00194866e-03	7.42954301e-05
2.14000000e+00	1.96960115e-03	7.25178342e-05
2.14500000e+00	1.98428259e-03	7.31895330e-05
2.15000000e+00	1.96403758e-03	6.99862053e-05
2.15500000e+00	1.96345760e-03	7.01801781e-05
2.16000000e+00	1.93370747e-03	6.87372258e-05
2.16500000e+00	1.93249593e-03	6.91975975e-05
2.17000000e+00	1.92361708e-03	6.71348069e-05
2.17500000e+00	1.92011064e-03	6.72202818e-05
2.18000000e+00	1.90586042e-03	6.69816302e-05
2.18500000e+00	1.89912008e-03	6.70472960e-05
2.19000000e+00	1.89070748e-03	6.65540251e-05
2.19500000e+00	1.88622325e-03	6.60093435e-05
2.20000000e+00	1.87918702e-03	6.60312797e-05
2.20500000e+00	1.85665766e-03	6.53970871e-05
2.21000000e+00	1.85434774e-03	6.56070304e-05
2.21500000e+00	1.84091304e-03	6.44542497e-05
2.22000000e+00	1.82194146e-03	6.36981661e-05
2.22500000e+00	1.83557689e-03	6.47328678e-05
2.23000000e+00	1.81697615e-03	6.43463995e-05
2.23500000e+00	1.78997682e-03	6.26425027e-05
2.24000000e+00	1.78676255e-03	6.24588830e-05
2.24500000e+00	1.76911573e-03	6.23099384e-05
2.25000000e+00	1.74167860e-03	6.18354537e-05
2.25500000e+00	1.75309202e-03	6.11879822e-05
2.26000000e+00	1.73202933e-03	6.07208095e-05
2.26500000e+00	1.71913800e-03	6.04391755e-05
2.27000000e+00	1.72077627e-03	6.13657528e-05
2.27500000e+00	1.71765418e-03	6.00019630e-05
2.28000000e+00	1.69771195e-03	5.92941495e-05
2.28500000e+00	1.67893908e-03	5.90852656e-05
2.29000000e+00	1.67919476e-03	5.93638805e-05
2.29500000e+00	1.66948688e-03	5.88396650e-05
2.30000000e+00	1.65416946e-03	5.77278023e-05
2.30500000e+00	1.65167716e-03	5.78408065e-05
2.31000000e+00	1.62813604e-03	5.73631945e-05
2.31500000e+00	1.60915586e-03	5.71552427e-05
2.32000000e+00	1.60716585e-03	5.58538106e-05
2.32500000e+00	1.59235419e-03	5.57989875e-05
2.33000000e+00	1.57337243e-03	5.52516370e-05
2.33500000e+00	1.57952413e-03	5.60052512e-05
2.34000000e+00	1.56276692e-03	5.45427071e-05
2.34500000e+00	1.55620606e-03	5.42679612e-05
2.35000000e+00	1.56437305e-03	5.48416600e-05
2.35500000e+00	1.54240535e-03	5.47668655e-05
2.36000000e+00	1.52871939e-03	5.34824811e-05
2.36500000e+00	1.52264036e-03	5.32947179e-05
2.37000000e+00	1.51427218e-03	5.30082849e-05
2.37500000e+00	1.50869019e-03	5.32492138e-05
2.38000000e+00	1.48551079e-03	5.27078623e-05
2.38500000e+00	1.48926544e-03	5.20863823e-05
2.39000000e+00	1.47292547e-03	5.16319620e-05
2.39500000e+00	1.47510078e-03	5.19682076e-05
2.40000000e+00	1.45232544e-03	5.19834405e-05
2.40500000e+00	1.45069894e-03	5.08017391e-05
2.41000000e+00	1.43149386e-03	5.03946683e-05
2.41500000e+00	1.44477823e-03	5.08587833e-05
2.42000000e+00	1.43162222e-03	5.09648104e-05
2.42500000e+00	1.41557719e-03	5.03696442e-05
2.43000000e+00	1.40873745e-03	4.96754613e-05
2.43500000e+00	1.39812432e-03	4.94634201e-05
2.44000000e+00	1.39474856e-03	4.93631429e-05
2.44500000e+00	1.37637359e-03	4.94631434e-05
2.45000000e+00	1.36712106e-03	4.81831005e-05
2.45500000e+00	1.36606571e-03	4.83810881e-05
2.46000000e+00	1.36664789e-03	4.84951784e-05
2.46500000e+00	1.34577740e-03	4.83997304e-05
2.47000000e+00	1.34128089e-03	4.77786624e-05
2.47500000e+00	1.32370285e-03	4.68082643e-05
2.48000000e+00	1.31069109e-03	4.68182863e-05
2.48500000e+00	1.33113022e-03	4.75080631e-05
2.49000000e+00	1.29819528e-03	4.69905710e-05
2.49500000e+00	1.29832049e-03	4.61215404e-05
2.50000000e+00	1.28461454e-03	4.57137494e-05
2.50500000e+00	1.30470504e-03	4.67110044e-05
2.51000000e+00	1.28018443e-03	4.61732676e-05
2.51500000e+00	1.27399880e-03	4.60049124e-05
2.52000000e+00	1.26349542e-03	4.53114756e-05
2.52500000e+00	1.24032956e-03	4.46666857e-05
2.53000000e+00	1.23821046e-03	4.49176850e-05
2.53500000e+00	1.24311418e-03	4.57126550e-05
2.54000000e+00	1.23408879e-03	4.46487805e-05
2.54500000e+00	1.22082169e-03	4.43584127e-05
2.55000000e+00	1.23094083e-03	4.48536743e-05
2.55500000e+00	1.21920667e-03	4.48207511e-05
2.56000000e+00	1.20840652e-03	4.46881836e-05
2.56500000e+00	1.18864087e-03	4.35909309e-05
2.57000000e+00	1.19342748e-03	4.39467598e-05
2.57500000e+00	1.17842448e-03	4.35396342e-05
2.58000000e+00	1.17293252e-03	4.40036355e-05
2.58500000e+00	1.17407254e-03	4.37326297e-05
2.59000000e+00	1.16394975e-03	4.31512026e-05
2.59500000e+00	1.14922884e-03	4.28423226e-05
2.60000000e+00	1.14522607e-03	4.29627299e-05
2.60500000e+00	1.15704920e-03	4.44170155e-05
2.61000000e+00	1.16419553e-03	5.07875942e-05
2.61500000e+00	1.14563214e-03	5.53617268e-05
2.62000000e+00	1.12933851e-03	6.01319520e-05
2.62500000e+00	1.11075317e-03	6.38332762e-05
2.63000000e+00	1.13009971e-03	7.18998499e-05
2.63500000e+00	1.10376358e-03	7.78208497e-05
2.64000000e+00	1.17617847e-03	9.15862234e-05
2.64500000e+00	1.10310324e-03	9.16628738e-05
2.65000000e+00	1.12017062e-03	9.84273635e-05
2.65500000e+00	1.08838428e-03	1.03085887e-04
2.66000000e+00	1.04552352e-03	1.06166150e-04
2.66500000e+00	1.04995257e-03	1.19372858e-04
2.67000000e+00	1.03828508e-03	1.28552207e-04
2.67500000e+00	1.02981266e-03	1.49598738e-04
2.68000000e+00	1.03496747e-03	1.72785196e-04
2.68500000e+00	1.16616722e-03	2.57942664e-04
2.69000000e+00	1.09916254e-03	3.93709576e-04
2.69500000e+00	0.00000000e+00	0.00000000e+00
2.70000000e+00	0.00000000e+00	0.00000000e+00
