% Filename : WDL7_00011_00002.h5
% Date & Time : 30-Oct-2025 14:43:45
% X-ray Energy (keV) : 13.30001
% Exposure Time (s) : 0.500
% Photodiode Value : 135042.000
% I0 of Sample : 0
% I0 of Standard : 1
% 
% q(A^-1)   I(q)    I(q)_SE
8.40000000e-01	0.00000000e+00	0.00000000e+00
8.45000000e-01	2.87657594e-03	5.03882321e-04
8.50000000e-01	2.69712258e-03	2.50775739e-04
8.55000000e-01	2.65474981e-03	2.17138744e-04
8.60000000e-01	2.62056704e-03	1.85312237e-04
8.65000000e-01	2.66436937e-03	1.73745335e-04
8.70000000e-01	2.66574447e-03	1.65816388e-04
8.75000000e-01	2.63209353e-03	1.57551653e-04
8.80000000e-01	2.63907485e-03	1.52489764e-04
8.85000000e-01	2.71362090e-03	1.48350865e-04
8.90000000e-01	2.69217438e-03	1.44088451e-04
8.95000000e-01	2.69039170e-03	1.39776400e-04
9.00000000e-01	2.67471401e-03	1.37800485e-04
9.05000000e-01	2.68908081e-03	1.32402490e-04
9.10000000e-01	2.73451053e-03	1.32206285e-04
9.15000000e-01	2.71140271e-03	1.29012016e-04
9.20000000e-01	2.73326586e-03	1.30070111e-04
9.25000000e-01	2.73264296e-03	1.24291446e-04
9.30000000e-01	2.73509340e-03	1.23116642e-04
9.35000000e-01	2.75307121e-03	1.21569727e-04
9.40000000e-01	2.74866293e-03	1.21713776e-04
9.45000000e-01	2.76859566e-03	1.19550932e-04
9.50000000e-01	2.77720255e-03	1.18120719e-04
9.55000000e-01	2.79156345e-03	1.16793830e-04
9.60000000e-01	2.77599518e-03	1.16047454e-04
9.65000000e-01	2.77784806e-03	1.14259097e-04
9.70000000e-01	2.77108160e-03	1.12190454e-04
9.75000000e-01	2.79238847e-03	1.11742664e-04
9.80000000e-01	2.79577531e-03	1.11026769e-04
9.85000000e-01	2.79691118e-03	1.10966456e-04
9.90000000e-01	2.77513005e-03	1.06889041e-04
9.95000000e-01	2.81431260e-03	1.07882676e-04
1.00000000e+00	2.82700805e-03	1.07821511e-04
1.00500000e+00	2.79447206e-03	1.06585806e-04
1.01000000e+00	2.81466984e-03	1.04992882e-04
1.01500000e+00	2.79585216e-03	1.03475163e-04
1.02000000e+00	2.79740202e-03	1.03462195e-04
1.02500000e+00	2.78019393e-03	1.01583308e-04
1.03000000e+00	2.78819748e-03	1.01530851e-04
1.03500000e+00	2.78017166e-03	9.97923779e-05
1.04000000e+00	2.79028260e-03	9.95068036e-05
1.04500000e+00	2.77173163e-03	9.90473088e-05
1.05000000e+00	2.77220793e-03	9.83381654e-05
1.05500000e+00	2.75534331e-03	9.62467559e-05
1.06000000e+00	2.74591560e-03	9.57484706e-05
1.06500000e+00	2.77091130e-03	9.66499486e-05
1.07000000e+00	2.77432831e-03	9.66014816e-05
1.07500000e+00	2.80042559e-03	9.66758657e-05
1.08000000e+00	2.78789245e-03	9.57031619e-05
1.08500000e+00	2.79422007e-03	9.59569246e-05
1.09000000e+00	2.78654531e-03	9.63645974e-05
1.09500000e+00	2.78395645e-03	9.42906244e-05
1.10000000e+00	2.82942277e-03	9.66116903e-05
1.10500000e+00	2.83140229e-03	9.68243472e-05
1.11000000e+00	2.82963132e-03	9.69434212e-05
1.11500000e+00	2.83348835e-03	9.63897522e-05
1.12000000e+00	2.83183633e-03	9.66591072e-05
1.12500000e+00	2.83876789e-03	9.67080035e-05
1.13000000e+00	2.85899801e-03	9.85876231e-05
1.13500000e+00	2.88014174e-03	9.80161337e-05
1.14000000e+00	2.87100806e-03	9.75458739e-05
1.14500000e+00	2.91092272e-03	9.97557915e-05
1.15000000e+00	2.87043849e-03	9.87970469e-05
1.15500000e+00	2.89984349e-03	9.87643936e-05
1.16000000e+00	2.89502209e-03	9.89898489e-05
1.16500000e+00	2.91826268e-03	9.95545489e-05
1.17000000e+00	2.93262777e-03	1.01317837e-04
1.17500000e+00	2.91004948e-03	9.91086501e-05
1.18000000e+00	2.93819733e-03	1.00514611e-04
1.18500000e+00	2.93794513e-03	1.00381358e-04
1.19000000e+00	2.92350762e-03	1.00952328e-04
1.19500000e+00	2.92947975e-03	9.99281036e-05
1.20000000e+00	2.95928540e-03	1.01435623e-04
1.20500000e+00	2.94124833e-03	1.00704038e-04
1.21000000e+00	2.95927150e-03	1.02620560e-04
1.21500000e+00	2.97128097e-03	1.01459093e-04
1.22000000e+00	2.95221388e-03	1.00970901e-04
1.22500000e+00	2.98045523e-03	1.02325777e-04
1.23000000e+00	2.97238053e-03	1.02721192e-04
1.23500000e+00	2.96667684e-03	1.01852160e-04
1.24000000e+00	2.97366277e-03	1.01741086e-04
1.24500000e+00	2.97438169e-03	1.02476241e-04
1.25000000e+00	2.99536116e-03	1.03775614e-04
1.25500000e+00	2.99853439e-03	1.02610622e-04
1.26000000e+00	2.98623786e-03	1.02843630e-04
1.26500000e+00	2.96865311e-03	1.01746597e-04
1.27000000e+00	3.00516912e-03	1.04630514e-04
1.27500000e+00	2.99494184e-03	1.03283327e-04
1.28000000e+00	2.99592945e-03	1.02548767e-04
1.28500000e+00	2.99157318e-03	1.03005182e-04
1.29000000e+00	2.98712780e-03	1.03734081e-04
1.29500000e+00	3.01898248e-03	1.03831002e-04
1.30000000e+00	2.97214815e-03	1.01947555e-04
1.30500000e+00	2.99952181e-03	1.03419329e-04
1.31000000e+00	2.97397455e-03	1.03748182e-04
1.31500000e+00	2.99418840e-03	1.03152893e-04
1.32000000e+00	2.99271167e-03	1.02861180e-04
1.32500000e+00	2.98419628e-03	1.02980117e-04
1.33000000e+00	2.97434086e-03	1.03789584e-04
1.33500000e+00	3.01224552e-03	1.03742833e-04
1.34000000e+00	2.99670465e-03	1.03335455e-04
1.34500000e+00	3.00414085e-03	1.03974065e-04
1.35000000e+00	3.00269741e-03	1.04973064e-04
1.35500000e+00	2.99817619e-03	1.03336915e-04
1.36000000e+00	2.99801565e-03	1.03055464e-04
1.36500000e+00	3.00112145e-03	1.03637776e-04
1.37000000e+00	3.01955160e-03	1.05766899e-04
1.37500000e+00	2.98709671e-03	1.03066438e-04
1.38000000e+00	2.99960070e-03	1.03680070e-04
1.38500000e+00	3.00019749e-03	1.04306804e-04
1.39000000e+00	2.98283699e-03	1.04284410e-04
1.39500000e+00	3.01002203e-03	1.03778703e-04
1.40000000e+00	3.01346521e-03	1.07084526e-04
1.40500000e+00	2.99792467e-03	1.14557953e-04
1.41000000e+00	2.95448481e-03	1.18344350e-04
1.41500000e+00	2.93542136e-03	1.21694209e-04
1.42000000e+00	2.90823089e-03	1.25456178e-04
1.42500000e+00	2.92483866e-03	1.29933460e-04
1.43000000e+00	2.89426388e-03	1.33471894e-04
1.43500000e+00	2.90216464e-03	1.37875536e-04
1.44000000e+00	2.87854423e-03	1.41928157e-04
1.44500000e+00	2.84655902e-03	1.44264582e-04
1.45000000e+00	2.91167724e-03	1.42705196e-04
1.45500000e+00	2.94783208e-03	1.29731452e-04
1.46000000e+00	2.95516953e-03	1.27110060e-04
1.46500000e+00	2.94959179e-03	1.24507954e-04
1.47000000e+00	2.94548176e-03	1.24116842e-04
1.47500000e+00	2.98632999e-03	1.22098649e-04
1.48000000e+00	2.94210148e-03	1.18949074e-04
1.48500000e+00	2.96591736e-03	1.20086401e-04
1.49000000e+00	2.95755286e-03	1.19962478e-04
1.49500000e+00	2.95085811e-03	1.17034487e-04
1.50000000e+00	2.92098642e-03	1.15438911e-04
1.50500000e+00	2.93839896e-03	1.16852849e-04
1.51000000e+00	2.95521697e-03	1.17627646e-04
1.51500000e+00	2.97964042e-03	1.16794612e-04
1.52000000e+00	2.98053035e-03	1.16407123e-04
1.52500000e+00	2.97916956e-03	1.16178027e-04
1.53000000e+00	2.96607708e-03	1.16362506e-04
1.53500000e+00	2.96687626e-03	1.13155502e-04
1.54000000e+00	2.96420418e-03	1.12739661e-04
1.54500000e+00	2.92376374e-03	1.11147508e-04
1.55000000e+00	2.92873984e-03	1.10973400e-04
1.55500000e+00	2.91220375e-03	1.07808944e-04
1.56000000e+00	2.92249257e-03	1.08431820e-04
1.56500000e+00	2.91765662e-03	1.07651792e-04
1.57000000e+00	2.89996645e-03	1.06252198e-04
1.57500000e+00	2.87259371e-03	1.03348987e-04
1.58000000e+00	2.85286589e-03	1.02491556e-04
1.58500000e+00	2.87941093e-03	1.03360907e-04
1.59000000e+00	2.85576892e-03	1.02643654e-04
1.59500000e+00	2.82753677e-03	9.97124965e-05
1.60000000e+00	2.84425427e-03	1.00214334e-04
1.60500000e+00	2.84116126e-03	1.00123654e-04
1.61000000e+00	2.83790690e-03	9.96412663e-05
1.61500000e+00	2.83416125e-03	9.85198590e-05
1.62000000e+00	2.80286780e-03	9.79012563e-05
1.62500000e+00	2.83427824e-03	1.00088050e-04
1.63000000e+00	2.80485271e-03	9.79973092e-05
1.63500000e+00	2.80709420e-03	9.80639246e-05
1.64000000e+00	2.79225677e-03	9.76850488e-05
1.64500000e+00	2.77470174e-03	9.81932632e-05
1.65000000e+00	2.77826203e-03	9.71387190e-05
1.65500000e+00	2.78914613e-03	9.73635967e-05
1.66000000e+00	2.75107591e-03	9.62519807e-05
1.66500000e+00	2.75939465e-03	9.80970684e-05
1.67000000e+00	2.75367875e-03	9.59303025e-05
1.67500000e+00	2.75126408e-03	9.60260415e-05
1.68000000e+00	2.76427636e-03	9.67834504e-05
1.68500000e+00	2.74183524e-03	9.75939876e-05
1.69000000e+00	2.73387225e-03	9.54186670e-05
1.69500000e+00	2.71922161e-03	9.48146001e-05
1.70000000e+00	2.72214342e-03	9.60258777e-05
1.70500000e+00	2.68855974e-03	9.52176348e-05
1.71000000e+00	2.71340910e-03	9.48457736e-05
1.71500000e+00	2.71347069e-03	9.47398210e-05
1.72000000e+00	2.69622782e-03	9.49983745e-05
1.72500000e+00	2.70926864e-03	9.59633481e-05
1.73000000e+00	2.68287962e-03	9.37670521e-05
1.73500000e+00	2.67876646e-03	9.39048519e-05
1.74000000e+00	2.68991431e-03	9.45076129e-05
1.74500000e+00	2.67294482e-03	9.50215727e-05
1.75000000e+00	2.66597545e-03	9.29200751e-05
1.75500000e+00	2.66489060e-03	9.35367212e-05
1.76000000e+00	2.64936175e-03	9.29325280e-05
1.76500000e+00	2.64367355e-03	9.39367288e-05
1.77000000e+00	2.63796849e-03	9.21931676e-05
1.77500000e+00	2.61278551e-03	9.16332879e-05
1.78000000e+00	2.61462479e-03	9.19428246e-05
1.78500000e+00	2.60585367e-03	9.25608870e-05
1.79000000e+00	2.61089411e-03	9.11789367e-05
1.79500000e+00	2.61696449e-03	9.16631759e-05
1.80000000e+00	2.57944336e-03	9.08799918e-05
1.80500000e+00	2.57814812e-03	9.14563818e-05
1.81000000e+00	2.59382608e-03	9.06748131e-05
1.81500000e+00	2.58962912e-03	9.06006708e-05
1.82000000e+00	2.57721837e-03	9.07267917e-05
1.82500000e+00	2.56375515e-03	9.08226127e-05
1.83000000e+00	2.56042580e-03	8.94975172e-05
1.83500000e+00	2.54514998e-03	8.91532808e-05
1.84000000e+00	2.51439342e-03	8.86020574e-05
1.84500000e+00	2.52171117e-03	8.93599575e-05
1.85000000e+00	2.54098885e-03	8.89525764e-05
1.85500000e+00	2.50973326e-03	8.79401557e-05
1.86000000e+00	2.50167802e-03	8.82761509e-05
1.86500000e+00	2.49731766e-03	8.83247110e-05
1.87000000e+00	2.50997234e-03	8.78266472e-05
1.87500000e+00	2.50698362e-03	8.79372010e-05
1.88000000e+00	2.49772099e-03	8.80262392e-05
1.88500000e+00	2.47242811e-03	8.76516728e-05
1.89000000e+00	2.45607052e-03	8.59093811e-05
1.89500000e+00	2.43710542e-03	8.56824768e-05
1.90000000e+00	2.45380610e-03	8.65261946e-05
1.90500000e+00	2.44289085e-03	8.62159706e-05
1.91000000e+00	2.42035349e-03	8.47879201e-05
1.91500000e+00	2.43480673e-03	8.53546835e-05
1.92000000e+00	2.41652469e-03	8.52146358e-05
1.92500000e+00	2.39649026e-03	8.45961888e-05
1.93000000e+00	2.39945065e-03	8.39673403e-05
1.93500000e+00	2.39122442e-03	8.39098919e-05
1.94000000e+00	2.38786952e-03	8.44417623e-05
1.94500000e+00	2.36954397e-03	8.36123301e-05
1.95000000e+00	2.36849386e-03	8.27470252e-05
1.95500000e+00	2.38069361e-03	8.35920534e-05
1.96000000e+00	2.36589213e-03	8.35097309e-05
1.96500000e+00	2.35588249e-03	8.31760470e-05
1.97000000e+00	2.33464873e-03	8.15437945e-05
1.97500000e+00	2.33857365e-03	8.22039018e-05
1.98000000e+00	2.32692856e-03	8.21308066e-05
1.98500000e+00	2.33404600e-03	8.25980259e-05
1.99000000e+00	2.30655152e-03	8.05101788e-05
1.99500000e+00	2.31479793e-03	8.12815541e-05
2.00000000e+00	2.29177516e-03	8.09895638e-05
2.00500000e+00	2.30840083e-03	8.18151063e-05
2.01000000e+00	2.27455606e-03	8.83733261e-05
2.01500000e+00	2.25960379e-03	9.31363543e-05
2.02000000e+00	2.26260374e-03	9.95928403e-05
2.02500000e+00	2.23090789e-03	1.01947799e-04
2.03000000e+00	2.20119088e-03	1.06639469e-04
2.03500000e+00	2.19411451e-03	1.10942880e-04
2.04000000e+00	2.20733736e-03	1.16624040e-04
2.04500000e+00	2.19450150e-03	1.22094515e-04
2.05000000e+00	2.19404181e-03	1.28144458e-04
2.05500000e+00	2.19189767e-03	1.25593838e-04
2.06000000e+00	2.19718348e-03	1.09524695e-04
2.06500000e+00	2.18506770e-03	1.03908938e-04
2.07000000e+00	2.19781027e-03	9.89682473e-05
2.07500000e+00	2.19392745e-03	9.65267919e-05
2.08000000e+00	2.17539768e-03	9.55295305e-05
2.08500000e+00	2.20089325e-03	9.57250346e-05
2.09000000e+00	2.17418099e-03	9.18353118e-05
2.09500000e+00	2.16877758e-03	9.07192837e-05
2.10000000e+00	2.16968810e-03	9.00898927e-05
2.10500000e+00	2.14627977e-03	8.87481818e-05
2.11000000e+00	2.15534902e-03	8.59679357e-05
2.11500000e+00	2.12952960e-03	8.40368674e-05
2.12000000e+00	2.12089090e-03	8.31853095e-05
2.12500000e+00	2.11372133e-03	8.28132379e-05
2.13000000e+00	2.09080454e-03	7.85264005e-05
2.13500000e+00	2.07386000e-03	7.69956318e-05
2.14000000e+00	2.04371066e-03	7.51893634e-05
2.14500000e+00	2.04288461e-03	7.53167572e-05
2.15000000e+00	2.03324035e-03	7.25625394e-05
2.15500000e+00	2.04283101e-03	7.30215152e-05
2.16000000e+00	2.00351477e-03	7.13115988e-05
2.16500000e+00	2.00710882e-03	7.18119033e-05
2.17000000e+00	2.00219273e-03	6.99676624e-05
2.17500000e+00	2.00008109e-03	7.00564809e-05
2.18000000e+00	1.97964590e-03	6.96272223e-05
2.18500000e+00	1.97147025e-03	6.96210840e-05
2.19000000e+00	1.96342570e-03	6.91576934e-05
2.19500000e+00	1.96552963e-03	6.88311270e-05
2.20000000e+00	1.93760214e-03	6.79932982e-05
2.20500000e+00	1.93425396e-03	6.81599747e-05
2.21000000e+00	1.90140058e-03	6.72919732e-05
2.21500000e+00	1.92064404e-03	6.73025138e-05
2.22000000e+00	1.89982917e-03	6.63924930e-05
2.22500000e+00	1.89180537e-03	6.67894013e-05
2.23000000e+00	1.88396213e-03	6.68312955e-05
2.23500000e+00	1.86141782e-03	6.51475098e-05
2.24000000e+00	1.86381345e-03	6.52183992e-05
2.24500000e+00	1.83268432e-03	6.44823449e-05
2.25000000e+00	1.82364823e-03	6.47776348e-05
2.25500000e+00	1.81673176e-03	6.34230983e-05
2.26000000e+00	1.80354777e-03	6.32418753e-05
2.26500000e+00	1.79014151e-03	6.29454214e-05
2.27000000e+00	1.78524107e-03	6.36534822e-05
2.27500000e+00	1.78828435e-03	6.24237061e-05
2.28000000e+00	1.77251407e-03	6.19415418e-05
2.28500000e+00	1.75235207e-03	6.15923192e-05
2.29000000e+00	1.73005456e-03	6.12190038e-05
2.29500000e+00	1.72983982e-03	6.10835130e-05
2.30000000e+00	1.72634842e-03	6.03635872e-05
2.30500000e+00	1.70992626e-03	5.99321858e-05
2.31000000e+00	1.69015504e-03	5.95283610e-05
2.31500000e+00	1.68746410e-03	5.99100409e-05
2.32000000e+00	1.67318945e-03	5.81727262e-05
2.32500000e+00	1.66972318e-03	5.85358843e-05
2.33000000e+00	1.64674022e-03	5.78636546e-05
2.33500000e+00	1.64301121e-03	5.83786467e-05
2.34000000e+00	1.63405305e-03	5.70586229e-05
2.34500000e+00	1.64047451e-03	5.72750901e-05
2.35000000e+00	1.62157168e-03	5.68427772e-05
2.35500000e+00	1.60574976e-03	5.70379408e-05
2.36000000e+00	1.59934285e-03	5.59770065e-05
2.36500000e+00	1.58268931e-03	5.53402325e-05
2.37000000e+00	1.56851379e-03	5.49171102e-05
2.37500000e+00	1.56055051e-03	5.51171855e-05
2.38000000e+00	1.55800961e-03	5.53142655e-05
2.38500000e+00	1.54507466e-03	5.40438416e-05
2.39000000e+00	1.52499230e-03	5.35344214e-05
2.39500000e+00	1.53062290e-03	5.39599364e-05
2.40000000e+00	1.51696949e-03	5.43788653e-05
2.40500000e+00	1.50704719e-03	5.28476365e-05
2.41000000e+00	1.48926472e-03	5.24031565e-05
2.41500000e+00	1.47447467e-03	5.19557442e-05
2.42000000e+00	1.49535758e-03	5.33878301e-05
2.42500000e+00	1.47785945e-03	5.27017098e-05
2.43000000e+00	1.45400020e-03	5.13579216e-05
2.43500000e+00	1.45081988e-03	5.13899496e-05
2.44000000e+00	1.45518758e-03	5.15814828e-05
2.44500000e+00	1.43401009e-03	5.15390712e-05
2.45000000e+00	1.43119167e-03	5.05374335e-05
2.45500000e+00	1.40739738e-03	4.98175755e-05
2.46000000e+00	1.40706759e-03	5.00721188e-05
2.46500000e+00	1.39270474e-03	5.02368300e-05
2.47000000e+00	1.40423882e-03	5.01007363e-05
2.47500000e+00	1.38839848e-03	4.92147870e-05
2.48000000e+00	1.37863016e-03	4.93315650e-05
2.48500000e+00	1.36583160e-03	4.88970785e-05
2.49000000e+00	1.36271501e-03	4.93663863e-05
2.49500000e+00	1.35141121e-03	4.81244715e-05
2.50000000e+00	1.34749264e-03	4.80770651e-05
2.50500000e+00	1.33834497e-03	4.80151778e-05
2.51000000e+00	1.33376005e-03	4.81031863e-05
2.51500000e+00	1.33220784e-03	4.82029715e-05
2.52000000e+00	1.30600691e-03	4.68523434e-05
2.52500000e+00	1.31881713e-03	4.75523096e-05
2.53000000e+00	1.29173440e-03	4.69778034e-05
2.53500000e+00	1.29952850e-03	4.77731664e-05
2.54000000e+00	1.28320091e-03	4.64171159e-05
2.54500000e+00	1.28219029e-03	4.66097670e-05
2.55000000e+00	1.25539212e-03	4.58037055e-05
2.55500000e+00	1.27132237e-03	4.68002202e-05
2.56000000e+00	1.24725746e-03	4.61197633e-05
2.56500000e+00	1.26338937e-03	4.63043394e-05
2.57000000e+00	1.24143819e-03	4.57401748e-05
2.57500000e+00	1.22913571e-03	4.54561488e-05
2.58000000e+00	1.22003236e-03	4.58226070e-05
2.58500000e+00	1.21733614e-03	4.53838493e-05
2.59000000e+00	1.21167696e-03	4.49530504e-05
2.59500000e+00	1.21597789e-03	4.53088899e-05
2.60000000e+00	1.20680080e-03	4.53578710e-05
2.60500000e+00	1.21553468e-03	4.65673287e-05
2.61000000e+00	1.20784497e-03	5.27634975e-05
2.61500000e+00	1.17262809e-03	5.67518163e-05
2.62000000e+00	1.16967208e-03	6.21919457e-05
2.62500000e+00	1.16743706e-03	6.71786808e-05
2.63000000e+00	1.17949065e-03	7.50402001e-05
2.63500000e+00	1.19917067e-03	8.44860678e-05
2.64000000e+00	1.18282433e-03	9.19313192e-05
2.64500000e+00	1.18250174e-03	9.78922900e-05
2.65000000e+00	1.17874503e-03	1.03500301e-04
2.65500000e+00	1.18808423e-03	1.12672275e-04
2.66000000e+00	1.15977848e-03	1.17526212e-04
2.66500000e+00	1.13014775e-03	1.28504548e-04
2.67000000e+00	1.11346842e-03	1.37373218e-04
2.67500000e+00	1.16223734e-03	1.67028028e-04
2.68000000e+00	1.17678839e-03	1.97400404e-04
2.68500000e+00	1.19541423e-03	2.67945247e-04
2.69000000e+00	1.13366351e-03	4.07186788e-04
2.69500000e+00	0.00000000e+00	0.00000000e+00
2.70000000e+00	0.00000000e+00	0.00000000e+00
