% Filename : WDL7_00012_00036.h5
% Date & Time : 30-Oct-2025 14:48:14
% X-ray Energy (keV) : 13.30001
% Exposure Time (s) : 0.500
% Photodiode Value : 136311.000
% I0 of Sample : 0
% I0 of Standard : 1
% 
% q(A^-1)   I(q)    I(q)_SE
8.40000000e-01	0.00000000e+00	0.00000000e+00
8.45000000e-01	2.86981393e-03	5.02220654e-04
8.50000000e-01	2.67025603e-03	2.47940315e-04
8.55000000e-01	2.58662223e-03	2.11845770e-04
8.60000000e-01	2.61242402e-03	1.84764582e-04
8.65000000e-01	2.64043197e-03	1.72220759e-04
8.70000000e-01	2.61725882e-03	1.62523856e-04
8.75000000e-01	2.62066256e-03	1.56628869e-04
8.80000000e-01	2.58582054e-03	1.49511649e-04
8.85000000e-01	2.63905157e-03	1.44275752e-04
8.90000000e-01	2.60189906e-03	1.39164421e-04
8.95000000e-01	2.64577654e-03	1.37768782e-04
9.00000000e-01	2.68389718e-03	1.38177198e-04
9.05000000e-01	2.67733645e-03	1.31874573e-04
9.10000000e-01	2.69758036e-03	1.30380489e-04
9.15000000e-01	2.67439879e-03	1.27217536e-04
9.20000000e-01	2.66240714e-03	1.26498318e-04
9.25000000e-01	2.69416091e-03	1.22454532e-04
9.30000000e-01	2.72547405e-03	1.22656075e-04
9.35000000e-01	2.69919591e-03	1.19173111e-04
9.40000000e-01	2.72264203e-03	1.20626800e-04
9.45000000e-01	2.70377949e-03	1.16646941e-04
9.50000000e-01	2.72119848e-03	1.15869941e-04
9.55000000e-01	2.72793692e-03	1.13983681e-04
9.60000000e-01	2.70240917e-03	1.13185759e-04
9.65000000e-01	2.74829913e-03	1.12980464e-04
9.70000000e-01	2.73685869e-03	1.10746439e-04
9.75000000e-01	2.72346672e-03	1.08993926e-04
9.80000000e-01	2.73931555e-03	1.08603224e-04
9.85000000e-01	2.73179240e-03	1.08444494e-04
9.90000000e-01	2.76048360e-03	1.06265989e-04
9.95000000e-01	2.77652783e-03	1.06470766e-04
1.00000000e+00	2.75089020e-03	1.04908853e-04
1.00500000e+00	2.77826751e-03	1.06058625e-04
1.01000000e+00	2.74960347e-03	1.02706553e-04
1.01500000e+00	2.78133444e-03	1.02902627e-04
1.02000000e+00	2.77009991e-03	1.02360842e-04
1.02500000e+00	2.72931127e-03	9.97311662e-05
1.03000000e+00	2.74274655e-03	9.98285234e-05
1.03500000e+00	2.75069345e-03	9.87287079e-05
1.04000000e+00	2.73153835e-03	9.74144791e-05
1.04500000e+00	2.72013242e-03	9.70644199e-05
1.05000000e+00	2.72888254e-03	9.68312586e-05
1.05500000e+00	2.73346470e-03	9.54996141e-05
1.06000000e+00	2.71831998e-03	9.47199769e-05
1.06500000e+00	2.75510967e-03	9.60837360e-05
1.07000000e+00	2.72854333e-03	9.50814746e-05
1.07500000e+00	2.73419519e-03	9.44610095e-05
1.08000000e+00	2.73733471e-03	9.40457055e-05
1.08500000e+00	2.74242492e-03	9.42844339e-05
1.09000000e+00	2.74524575e-03	9.48830879e-05
1.09500000e+00	2.74724746e-03	9.30780122e-05
1.10000000e+00	2.77271122e-03	9.45299672e-05
1.10500000e+00	2.77275380e-03	9.48742031e-05
1.11000000e+00	2.78667391e-03	9.54307347e-05
1.11500000e+00	2.80713993e-03	9.54911991e-05
1.12000000e+00	2.80011802e-03	9.56849852e-05
1.12500000e+00	2.80056183e-03	9.53859147e-05
1.13000000e+00	2.81744355e-03	9.71300855e-05
1.13500000e+00	2.82075258e-03	9.59947746e-05
1.14000000e+00	2.84352520e-03	9.66018536e-05
1.14500000e+00	2.83524891e-03	9.70167692e-05
1.15000000e+00	2.84494062e-03	9.79827803e-05
1.15500000e+00	2.84129548e-03	9.67255303e-05
1.16000000e+00	2.84126544e-03	9.72023723e-05
1.16500000e+00	2.87016128e-03	9.80310486e-05
1.17000000e+00	2.86680083e-03	9.91121848e-05
1.17500000e+00	2.86046884e-03	9.74339848e-05
1.18000000e+00	2.83678565e-03	9.70523080e-05
1.18500000e+00	2.87433364e-03	9.82563980e-05
1.19000000e+00	2.88302193e-03	9.95979983e-05
1.19500000e+00	2.90154142e-03	9.89592502e-05
1.20000000e+00	2.91039054e-03	9.97931889e-05
1.20500000e+00	2.89941704e-03	9.93198271e-05
1.21000000e+00	2.93185991e-03	1.01745108e-04
1.21500000e+00	2.91202709e-03	9.93851032e-05
1.22000000e+00	2.91343692e-03	9.96440652e-05
1.22500000e+00	2.91235086e-03	9.99854727e-05
1.23000000e+00	2.89978635e-03	1.00275252e-04
1.23500000e+00	2.89682219e-03	9.94763074e-05
1.24000000e+00	2.93987404e-03	1.00534032e-04
1.24500000e+00	2.91929378e-03	1.00497437e-04
1.25000000e+00	2.93157866e-03	1.01633192e-04
1.25500000e+00	2.91488844e-03	9.98268050e-05
1.26000000e+00	2.92576364e-03	1.00770880e-04
1.26500000e+00	2.94142182e-03	1.00874116e-04
1.27000000e+00	2.95657296e-03	1.02981313e-04
1.27500000e+00	2.93697397e-03	1.01240817e-04
1.28000000e+00	2.95643329e-03	1.01238542e-04
1.28500000e+00	2.93458471e-03	1.01124385e-04
1.29000000e+00	2.94417454e-03	1.02213407e-04
1.29500000e+00	2.93382847e-03	1.00869048e-04
1.30000000e+00	2.93121803e-03	1.00588582e-04
1.30500000e+00	2.93779297e-03	1.01299417e-04
1.31000000e+00	2.94172375e-03	1.02619888e-04
1.31500000e+00	2.93444762e-03	1.01058123e-04
1.32000000e+00	2.94347640e-03	1.01205302e-04
1.32500000e+00	2.92884017e-03	1.01081172e-04
1.33000000e+00	2.94259258e-03	1.02723594e-04
1.33500000e+00	2.95301055e-03	1.01745373e-04
1.34000000e+00	2.95336926e-03	1.01805085e-04
1.34500000e+00	2.92336117e-03	1.01107649e-04
1.35000000e+00	2.93145786e-03	1.02352190e-04
1.35500000e+00	2.92075526e-03	1.00660652e-04
1.36000000e+00	2.93782923e-03	1.01053310e-04
1.36500000e+00	2.95541134e-03	1.01998170e-04
1.37000000e+00	2.93088489e-03	1.02654274e-04
1.37500000e+00	2.93806704e-03	1.01318908e-04
1.38000000e+00	2.92546407e-03	1.01163531e-04
1.38500000e+00	2.93738637e-03	1.02094028e-04
1.39000000e+00	2.92144057e-03	1.02190369e-04
1.39500000e+00	2.90776100e-03	1.00220028e-04
1.40000000e+00	2.95248354e-03	1.04828644e-04
1.40500000e+00	2.91938711e-03	1.11560326e-04
1.41000000e+00	2.90979167e-03	1.16516219e-04
1.41500000e+00	2.87725402e-03	1.19332763e-04
1.42000000e+00	2.88062432e-03	1.24294121e-04
1.42500000e+00	2.84644182e-03	1.26516562e-04
1.43000000e+00	2.85859788e-03	1.31864971e-04
1.43500000e+00	2.80494967e-03	1.33184269e-04
1.44000000e+00	2.80703234e-03	1.38417693e-04
1.44500000e+00	2.79562521e-03	1.41511024e-04
1.45000000e+00	2.88486944e-03	1.41355772e-04
1.45500000e+00	2.89857959e-03	1.27555957e-04
1.46000000e+00	2.88857943e-03	1.24049548e-04
1.46500000e+00	2.88106063e-03	1.21536489e-04
1.47000000e+00	2.88126184e-03	1.21320820e-04
1.47500000e+00	2.88978407e-03	1.18133381e-04
1.48000000e+00	2.89055011e-03	1.16939887e-04
1.48500000e+00	2.86968594e-03	1.16152104e-04
1.49000000e+00	2.88489685e-03	1.16953187e-04
1.49500000e+00	2.87462490e-03	1.14073319e-04
1.50000000e+00	2.89297391e-03	1.14423941e-04
1.50500000e+00	2.88522482e-03	1.14727974e-04
1.51000000e+00	2.88091964e-03	1.14805313e-04
1.51500000e+00	2.92787784e-03	1.14715540e-04
1.52000000e+00	2.92063516e-03	1.14133559e-04
1.52500000e+00	2.91696017e-03	1.13726123e-04
1.53000000e+00	2.92151434e-03	1.14575169e-04
1.53500000e+00	2.87698342e-03	1.09700443e-04
1.54000000e+00	2.86706561e-03	1.09055566e-04
1.54500000e+00	2.89159258e-03	1.09861268e-04
1.55000000e+00	2.87038984e-03	1.08711088e-04
1.55500000e+00	2.85705677e-03	1.05854933e-04
1.56000000e+00	2.85734385e-03	1.06046564e-04
1.56500000e+00	2.83800903e-03	1.04760945e-04
1.57000000e+00	2.81632880e-03	1.03220834e-04
1.57500000e+00	2.77599684e-03	9.99005820e-05
1.58000000e+00	2.81168165e-03	1.00976256e-04
1.58500000e+00	2.79854379e-03	1.00553249e-04
1.59000000e+00	2.79411809e-03	1.00433354e-04
1.59500000e+00	2.77337677e-03	9.78326665e-05
1.60000000e+00	2.77448355e-03	9.77259916e-05
1.60500000e+00	2.75294653e-03	9.70049654e-05
1.61000000e+00	2.76287246e-03	9.69600475e-05
1.61500000e+00	2.76075444e-03	9.61083529e-05
1.62000000e+00	2.73233639e-03	9.55477168e-05
1.62500000e+00	2.73680262e-03	9.67305237e-05
1.63000000e+00	2.74029225e-03	9.57610501e-05
1.63500000e+00	2.71701239e-03	9.50531003e-05
1.64000000e+00	2.74516423e-03	9.60566668e-05
1.64500000e+00	2.71902053e-03	9.61206086e-05
1.65000000e+00	2.72970165e-03	9.55391430e-05
1.65500000e+00	2.69645593e-03	9.41823956e-05
1.66000000e+00	2.70422802e-03	9.45841027e-05
1.66500000e+00	2.69053232e-03	9.57046151e-05
1.67000000e+00	2.71760006e-03	9.46553845e-05
1.67500000e+00	2.69387006e-03	9.40959020e-05
1.68000000e+00	2.65333165e-03	9.29364222e-05
1.68500000e+00	2.69062971e-03	9.57027419e-05
1.69000000e+00	2.67558642e-03	9.34743538e-05
1.69500000e+00	2.67330368e-03	9.31890916e-05
1.70000000e+00	2.65344143e-03	9.35610935e-05
1.70500000e+00	2.63895319e-03	9.33756343e-05
1.71000000e+00	2.62778489e-03	9.18785785e-05
1.71500000e+00	2.62760581e-03	9.16899518e-05
1.72000000e+00	2.62668527e-03	9.24401393e-05
1.72500000e+00	2.62827066e-03	9.31228985e-05
1.73000000e+00	2.63157865e-03	9.20084553e-05
1.73500000e+00	2.60872547e-03	9.14272117e-05
1.74000000e+00	2.59576857e-03	9.12404194e-05
1.74500000e+00	2.59047419e-03	9.20878419e-05
1.75000000e+00	2.57942223e-03	8.99230817e-05
1.75500000e+00	2.60618450e-03	9.14899663e-05
1.76000000e+00	2.60115089e-03	9.12760678e-05
1.76500000e+00	2.58331223e-03	9.18001987e-05
1.77000000e+00	2.58470963e-03	9.03188804e-05
1.77500000e+00	2.56669517e-03	8.99560580e-05
1.78000000e+00	2.54120687e-03	8.93679841e-05
1.78500000e+00	2.54904701e-03	9.05011750e-05
1.79000000e+00	2.54349581e-03	8.88499040e-05
1.79500000e+00	2.55366429e-03	8.95149253e-05
1.80000000e+00	2.53428708e-03	8.92435115e-05
1.80500000e+00	2.54618679e-03	9.02392462e-05
1.81000000e+00	2.52374056e-03	8.81756503e-05
1.81500000e+00	2.51615826e-03	8.80258282e-05
1.82000000e+00	2.52389464e-03	8.88631127e-05
1.82500000e+00	2.45942444e-03	8.71549607e-05
1.83000000e+00	2.48170423e-03	8.67655974e-05
1.83500000e+00	2.47428640e-03	8.66821113e-05
1.84000000e+00	2.45174056e-03	8.63685623e-05
1.84500000e+00	2.46752957e-03	8.74054432e-05
1.85000000e+00	2.45666338e-03	8.60544403e-05
1.85500000e+00	2.46504094e-03	8.63643905e-05
1.86000000e+00	2.45635821e-03	8.67157644e-05
1.86500000e+00	2.45241297e-03	8.66812924e-05
1.87000000e+00	2.42731615e-03	8.48855044e-05
1.87500000e+00	2.41619619e-03	8.47438148e-05
1.88000000e+00	2.44196037e-03	8.60707506e-05
1.88500000e+00	2.41921151e-03	8.57756780e-05
1.89000000e+00	2.41433136e-03	8.43998979e-05
1.89500000e+00	2.36366002e-03	8.30838321e-05
1.90000000e+00	2.40002031e-03	8.45710711e-05
1.90500000e+00	2.38409895e-03	8.41510550e-05
1.91000000e+00	2.37941995e-03	8.33932962e-05
1.91500000e+00	2.34970173e-03	8.23922760e-05
1.92000000e+00	2.37307541e-03	8.36884305e-05
1.92500000e+00	2.36797940e-03	8.35685275e-05
1.93000000e+00	2.33406762e-03	8.16663523e-05
1.93500000e+00	2.34628302e-03	8.24408807e-05
1.94000000e+00	2.32481169e-03	8.22289808e-05
1.94500000e+00	2.32040118e-03	8.18344563e-05
1.95000000e+00	2.33467924e-03	8.15942476e-05
1.95500000e+00	2.31221550e-03	8.11301956e-05
1.96000000e+00	2.30630938e-03	8.14584702e-05
1.96500000e+00	2.26991310e-03	8.02714645e-05
1.97000000e+00	2.30780623e-03	8.05623509e-05
1.97500000e+00	2.28878502e-03	8.04695375e-05
1.98000000e+00	2.26822272e-03	8.00596223e-05
1.98500000e+00	2.24718271e-03	7.94886921e-05
1.99000000e+00	2.23584969e-03	7.80585293e-05
1.99500000e+00	2.25519626e-03	7.91202666e-05
2.00000000e+00	2.23749835e-03	7.90396390e-05
2.00500000e+00	2.26342922e-03	8.00991996e-05
2.01000000e+00	2.24379947e-03	8.71998032e-05
2.01500000e+00	2.21831744e-03	9.15015674e-05
2.02000000e+00	2.21787475e-03	9.76073446e-05
2.02500000e+00	2.19819716e-03	1.00413522e-04
2.03000000e+00	2.16166934e-03	1.04711028e-04
2.03500000e+00	2.15592838e-03	1.08996000e-04
2.04000000e+00	2.11630604e-03	1.12004584e-04
2.04500000e+00	2.10964560e-03	1.17314955e-04
2.05000000e+00	2.09790659e-03	1.22392438e-04
2.05500000e+00	2.12825737e-03	1.21768478e-04
2.06000000e+00	2.16505656e-03	1.07648148e-04
2.06500000e+00	2.16576275e-03	1.03090067e-04
2.07000000e+00	2.13790964e-03	9.62323841e-05
2.07500000e+00	2.13483826e-03	9.40262411e-05
2.08000000e+00	2.14824327e-03	9.44249606e-05
2.08500000e+00	2.13383544e-03	9.29020788e-05
2.09000000e+00	2.14061411e-03	9.03708158e-05
2.09500000e+00	2.12475523e-03	8.88240453e-05
2.10000000e+00	2.12129090e-03	8.80958061e-05
2.10500000e+00	2.09587192e-03	8.67231390e-05
2.11000000e+00	2.08116452e-03	8.29877334e-05
2.11500000e+00	2.05793132e-03	8.12100130e-05
2.12000000e+00	2.06187647e-03	8.09480905e-05
2.12500000e+00	2.05296036e-03	8.04525957e-05
2.13000000e+00	2.02833172e-03	7.61027468e-05
2.13500000e+00	2.02516984e-03	7.51800029e-05
2.14000000e+00	2.00175856e-03	7.36157744e-05
2.14500000e+00	1.99459696e-03	7.36564999e-05
2.15000000e+00	1.99469674e-03	7.10895894e-05
2.15500000e+00	1.95955781e-03	7.00410664e-05
2.16000000e+00	1.96963086e-03	7.00316273e-05
2.16500000e+00	1.95503063e-03	6.99696197e-05
2.17000000e+00	1.95455455e-03	6.82099279e-05
2.17500000e+00	1.93625360e-03	6.78350294e-05
2.18000000e+00	1.93539345e-03	6.80884686e-05
2.18500000e+00	1.92398506e-03	6.79715005e-05
2.19000000e+00	1.91179196e-03	6.73450552e-05
2.19500000e+00	1.90055211e-03	6.65955285e-05
2.20000000e+00	1.88406763e-03	6.61461785e-05
2.20500000e+00	1.88030018e-03	6.62539002e-05
2.21000000e+00	1.87800718e-03	6.64544181e-05
2.21500000e+00	1.86970107e-03	6.54862033e-05
2.22000000e+00	1.84324787e-03	6.45210229e-05
2.22500000e+00	1.83819204e-03	6.48183810e-05
2.23000000e+00	1.82700086e-03	6.48141073e-05
2.23500000e+00	1.82697203e-03	6.39244841e-05
2.24000000e+00	1.82644510e-03	6.38950873e-05
2.24500000e+00	1.78217737e-03	6.28085646e-05
2.25000000e+00	1.78956113e-03	6.36141215e-05
2.25500000e+00	1.77348998e-03	6.19686535e-05
2.26000000e+00	1.76246572e-03	6.17564971e-05
2.26500000e+00	1.74496840e-03	6.13851501e-05
2.27000000e+00	1.73556682e-03	6.18678769e-05
2.27500000e+00	1.72865268e-03	6.03799979e-05
2.28000000e+00	1.72262664e-03	6.02253276e-05
2.28500000e+00	1.71162142e-03	6.02194611e-05
2.29000000e+00	1.69520645e-03	6.00397376e-05
2.29500000e+00	1.68749162e-03	5.95337296e-05
2.30000000e+00	1.68357280e-03	5.88821535e-05
2.30500000e+00	1.64738929e-03	5.77236773e-05
2.31000000e+00	1.66041354e-03	5.84027564e-05
2.31500000e+00	1.65010194e-03	5.85815748e-05
2.32000000e+00	1.64049792e-03	5.70362855e-05
2.32500000e+00	1.61452487e-03	5.66103535e-05
2.33000000e+00	1.60681381e-03	5.64889612e-05
2.33500000e+00	1.61424782e-03	5.73572527e-05
2.34000000e+00	1.60610967e-03	5.61440014e-05
2.34500000e+00	1.57471531e-03	5.49956990e-05
2.35000000e+00	1.56561338e-03	5.48609142e-05
2.35500000e+00	1.55470831e-03	5.51895079e-05
2.36000000e+00	1.54721857e-03	5.41816045e-05
2.36500000e+00	1.54563233e-03	5.40933031e-05
2.37000000e+00	1.53977367e-03	5.39264573e-05
2.37500000e+00	1.52574767e-03	5.38948846e-05
2.38000000e+00	1.50167354e-03	5.32702178e-05
2.38500000e+00	1.51265725e-03	5.29124190e-05
2.39000000e+00	1.49454132e-03	5.23906999e-05
2.39500000e+00	1.48783724e-03	5.25532334e-05
2.40000000e+00	1.45805447e-03	5.21696754e-05
2.40500000e+00	1.46261308e-03	5.13176817e-05
2.41000000e+00	1.46644808e-03	5.16854808e-05
2.41500000e+00	1.44995656e-03	5.10714758e-05
2.42000000e+00	1.42183833e-03	5.07452773e-05
2.42500000e+00	1.42943252e-03	5.09156214e-05
2.43000000e+00	1.40811971e-03	4.96202224e-05
2.43500000e+00	1.42350022e-03	5.04026455e-05
2.44000000e+00	1.40939398e-03	5.00021703e-05
2.44500000e+00	1.40440962e-03	5.04427601e-05
2.45000000e+00	1.39758679e-03	4.93868206e-05
2.45500000e+00	1.38278954e-03	4.89356794e-05
2.46000000e+00	1.38284341e-03	4.91782611e-05
2.46500000e+00	1.36440282e-03	4.91454715e-05
2.47000000e+00	1.35119314e-03	4.81915551e-05
2.47500000e+00	1.35512604e-03	4.79925649e-05
2.48000000e+00	1.34017985e-03	4.79457338e-05
2.48500000e+00	1.33201916e-03	4.76218257e-05
2.49000000e+00	1.33216467e-03	4.82765948e-05
2.49500000e+00	1.31542819e-03	4.67516289e-05
2.50000000e+00	1.32476212e-03	4.71838056e-05
2.50500000e+00	1.30162615e-03	4.66284328e-05
2.51000000e+00	1.28151418e-03	4.61924809e-05
2.51500000e+00	1.27863553e-03	4.62438364e-05
2.52000000e+00	1.27834993e-03	4.58400363e-05
2.52500000e+00	1.27255534e-03	4.58504101e-05
2.53000000e+00	1.25803440e-03	4.57337344e-05
2.53500000e+00	1.25958567e-03	4.63400267e-05
2.54000000e+00	1.24128607e-03	4.49240058e-05
2.54500000e+00	1.23769119e-03	4.49950662e-05
2.55000000e+00	1.22926360e-03	4.48434027e-05
2.55500000e+00	1.21597843e-03	4.47160322e-05
2.56000000e+00	1.22618399e-03	4.53887492e-05
2.56500000e+00	1.22515381e-03	4.49073361e-05
2.57000000e+00	1.20712053e-03	4.45164488e-05
2.57500000e+00	1.20437221e-03	4.45183354e-05
2.58000000e+00	1.20142639e-03	4.50618823e-05
2.58500000e+00	1.17820481e-03	4.38239551e-05
2.59000000e+00	1.17697203e-03	4.36868224e-05
2.59500000e+00	1.17624324e-03	4.38478386e-05
2.60000000e+00	1.17679566e-03	4.42126290e-05
2.60500000e+00	1.17200499e-03	4.49900414e-05
2.61000000e+00	1.15949333e-03	5.06891095e-05
2.61500000e+00	1.15545498e-03	5.58781318e-05
2.62000000e+00	1.16780949e-03	6.21261046e-05
2.62500000e+00	1.13334556e-03	6.53194444e-05
2.63000000e+00	1.15056011e-03	7.31033135e-05
2.63500000e+00	1.14762791e-03	8.08772611e-05
2.64000000e+00	1.12150773e-03	8.72994773e-05
2.64500000e+00	1.13413547e-03	9.39475024e-05
2.65000000e+00	1.13673666e-03	1.00296383e-04
2.65500000e+00	1.13078005e-03	1.06938022e-04
2.66000000e+00	1.10075522e-03	1.11606491e-04
2.66500000e+00	1.07737987e-03	1.22743898e-04
2.67000000e+00	1.02534590e-03	1.26335779e-04
2.67500000e+00	1.05967164e-03	1.53864198e-04
2.68000000e+00	1.08533048e-03	1.81589921e-04
2.68500000e+00	1.08183379e-03	2.39999540e-04
2.69000000e+00	1.11278624e-03	4.01552973e-04
2.69500000e+00	0.00000000e+00	0.00000000e+00
2.70000000e+00	0.00000000e+00	0.00000000e+00
