% Filename : WDL7_00012_00240.h5
% Date & Time : 30-Oct-2025 15:00:34
% X-ray Energy (keV) : 13.30001
% Exposure Time (s) : 0.500
% Photodiode Value : 136570.000
% I0 of Sample : 0
% I0 of Standard : 1
% 
% q(A^-1)   I(q)    I(q)_SE
8.40000000e-01	0.00000000e+00	0.00000000e+00
8.45000000e-01	2.65959283e-03	4.66531833e-04
8.50000000e-01	2.60443933e-03	2.41801298e-04
8.55000000e-01	2.55728697e-03	2.09266234e-04
8.60000000e-01	2.56792203e-03	1.81537669e-04
8.65000000e-01	2.58148359e-03	1.68385341e-04
8.70000000e-01	2.57034194e-03	1.59887642e-04
8.75000000e-01	2.60928838e-03	1.56279056e-04
8.80000000e-01	2.60301022e-03	1.50509421e-04
8.85000000e-01	2.62274297e-03	1.43426594e-04
8.90000000e-01	2.60077657e-03	1.39201609e-04
8.95000000e-01	2.61190576e-03	1.35866786e-04
9.00000000e-01	2.64177052e-03	1.36170642e-04
9.05000000e-01	2.60959332e-03	1.28596686e-04
9.10000000e-01	2.62400512e-03	1.26820215e-04
9.15000000e-01	2.64146100e-03	1.25711396e-04
9.20000000e-01	2.65477514e-03	1.26192394e-04
9.25000000e-01	2.64291885e-03	1.20057614e-04
9.30000000e-01	2.65440072e-03	1.19543360e-04
9.35000000e-01	2.66768918e-03	1.17588683e-04
9.40000000e-01	2.68904677e-03	1.19053072e-04
9.45000000e-01	2.66599057e-03	1.15136309e-04
9.50000000e-01	2.69253619e-03	1.14561777e-04
9.55000000e-01	2.70877888e-03	1.13188920e-04
9.60000000e-01	2.70447521e-03	1.13140225e-04
9.65000000e-01	2.70038350e-03	1.11070426e-04
9.70000000e-01	2.70068339e-03	1.09249344e-04
9.75000000e-01	2.73984205e-03	1.09687659e-04
9.80000000e-01	2.72790590e-03	1.08278216e-04
9.85000000e-01	2.71829558e-03	1.08002718e-04
9.90000000e-01	2.71353235e-03	1.04442204e-04
9.95000000e-01	2.75516391e-03	1.05496730e-04
1.00000000e+00	2.73723774e-03	1.04373774e-04
1.00500000e+00	2.73179010e-03	1.04209182e-04
1.01000000e+00	2.73024983e-03	1.01874129e-04
1.01500000e+00	2.74129850e-03	1.01446449e-04
1.02000000e+00	2.73404652e-03	1.01116893e-04
1.02500000e+00	2.72146281e-03	9.94219193e-05
1.03000000e+00	2.71215450e-03	9.86313789e-05
1.03500000e+00	2.70853368e-03	9.71947905e-05
1.04000000e+00	2.71755776e-03	9.68268508e-05
1.04500000e+00	2.73214597e-03	9.75160886e-05
1.05000000e+00	2.71012541e-03	9.61058820e-05
1.05500000e+00	2.70562215e-03	9.44391123e-05
1.06000000e+00	2.71449390e-03	9.46573284e-05
1.06500000e+00	2.72088847e-03	9.49370353e-05
1.07000000e+00	2.72503105e-03	9.49502227e-05
1.07500000e+00	2.74580465e-03	9.48280586e-05
1.08000000e+00	2.73877732e-03	9.39535069e-05
1.08500000e+00	2.73672662e-03	9.39759494e-05
1.09000000e+00	2.74948004e-03	9.49130453e-05
1.09500000e+00	2.73848944e-03	9.27075418e-05
1.10000000e+00	2.76300918e-03	9.43187085e-05
1.10500000e+00	2.77134271e-03	9.46661037e-05
1.11000000e+00	2.75728561e-03	9.43926083e-05
1.11500000e+00	2.79733011e-03	9.51314449e-05
1.12000000e+00	2.80598339e-03	9.57353162e-05
1.12500000e+00	2.79049387e-03	9.49482576e-05
1.13000000e+00	2.79668876e-03	9.62828807e-05
1.13500000e+00	2.81665356e-03	9.57535015e-05
1.14000000e+00	2.82804852e-03	9.61302444e-05
1.14500000e+00	2.82031036e-03	9.66523653e-05
1.15000000e+00	2.82544039e-03	9.73444470e-05
1.15500000e+00	2.85245472e-03	9.71459396e-05
1.16000000e+00	2.85618600e-03	9.76224734e-05
1.16500000e+00	2.84811131e-03	9.72970903e-05
1.17000000e+00	2.84599171e-03	9.83282770e-05
1.17500000e+00	2.88259457e-03	9.81611100e-05
1.18000000e+00	2.87006335e-03	9.81858784e-05
1.18500000e+00	2.88611531e-03	9.85764342e-05
1.19000000e+00	2.87162680e-03	9.91477559e-05
1.19500000e+00	2.88937047e-03	9.85324947e-05
1.20000000e+00	2.90564002e-03	9.96826019e-05
1.20500000e+00	2.89388137e-03	9.91417352e-05
1.21000000e+00	2.88422141e-03	9.99886298e-05
1.21500000e+00	2.88368187e-03	9.85195763e-05
1.22000000e+00	2.89161153e-03	9.87581028e-05
1.22500000e+00	2.89086990e-03	9.92165346e-05
1.23000000e+00	2.89346983e-03	1.00129576e-04
1.23500000e+00	2.90622650e-03	9.97857175e-05
1.24000000e+00	2.92453552e-03	1.00022875e-04
1.24500000e+00	2.91270933e-03	1.00237456e-04
1.25000000e+00	2.90803324e-03	1.00735507e-04
1.25500000e+00	2.90039404e-03	9.92078253e-05
1.26000000e+00	2.91647279e-03	1.00366093e-04
1.26500000e+00	2.91110867e-03	9.98408586e-05
1.27000000e+00	2.90747949e-03	1.01251053e-04
1.27500000e+00	2.92789440e-03	1.00833221e-04
1.28000000e+00	2.92182952e-03	9.99671222e-05
1.28500000e+00	2.92091052e-03	1.00625469e-04
1.29000000e+00	2.92514879e-03	1.01680397e-04
1.29500000e+00	2.92432881e-03	1.00456108e-04
1.30000000e+00	2.90956788e-03	9.97990112e-05
1.30500000e+00	2.91263468e-03	1.00357466e-04
1.31000000e+00	2.91997807e-03	1.01880018e-04
1.31500000e+00	2.92403132e-03	1.00726750e-04
1.32000000e+00	2.93580750e-03	1.01040303e-04
1.32500000e+00	2.92945507e-03	1.01084990e-04
1.33000000e+00	2.92320367e-03	1.02055547e-04
1.33500000e+00	2.93849448e-03	1.01139593e-04
1.34000000e+00	2.91838985e-03	1.00575616e-04
1.34500000e+00	2.93102981e-03	1.01378156e-04
1.35000000e+00	2.90527572e-03	1.01482541e-04
1.35500000e+00	2.93879884e-03	1.01317254e-04
1.36000000e+00	2.90691235e-03	9.99835603e-05
1.36500000e+00	2.91675887e-03	1.00598858e-04
1.37000000e+00	2.91387310e-03	1.02127521e-04
1.37500000e+00	2.88445980e-03	9.94789441e-05
1.38000000e+00	2.91800481e-03	1.00848962e-04
1.38500000e+00	2.91097119e-03	1.01201069e-04
1.39000000e+00	2.89566198e-03	1.01292829e-04
1.39500000e+00	2.92887538e-03	1.00937709e-04
1.40000000e+00	2.95063202e-03	1.04853799e-04
1.40500000e+00	2.91738415e-03	1.11488187e-04
1.41000000e+00	2.87889237e-03	1.15197479e-04
1.41500000e+00	2.86960589e-03	1.19158953e-04
1.42000000e+00	2.88616233e-03	1.24517038e-04
1.42500000e+00	2.88139252e-03	1.27974549e-04
1.43000000e+00	2.85293458e-03	1.31573113e-04
1.43500000e+00	2.83655382e-03	1.34717453e-04
1.44000000e+00	2.84509113e-03	1.40483178e-04
1.44500000e+00	2.80602344e-03	1.42259442e-04
1.45000000e+00	2.86056801e-03	1.40011435e-04
1.45500000e+00	2.89747011e-03	1.27537335e-04
1.46000000e+00	2.88876429e-03	1.24121874e-04
1.46500000e+00	2.89211031e-03	1.22010393e-04
1.47000000e+00	2.89085184e-03	1.21817438e-04
1.47500000e+00	2.90688680e-03	1.18943628e-04
1.48000000e+00	2.88127767e-03	1.16536715e-04
1.48500000e+00	2.88072678e-03	1.16451782e-04
1.49000000e+00	2.90001855e-03	1.17766624e-04
1.49500000e+00	2.89764530e-03	1.15069726e-04
1.50000000e+00	2.90218731e-03	1.14738465e-04
1.50500000e+00	2.90173044e-03	1.15400919e-04
1.51000000e+00	2.91930542e-03	1.16277072e-04
1.51500000e+00	2.91766790e-03	1.14392281e-04
1.52000000e+00	2.88418459e-03	1.12655011e-04
1.52500000e+00	2.92077920e-03	1.13899551e-04
1.53000000e+00	2.91439725e-03	1.14343022e-04
1.53500000e+00	2.92092899e-03	1.11277554e-04
1.54000000e+00	2.91411264e-03	1.10849389e-04
1.54500000e+00	2.89412125e-03	1.09961804e-04
1.55000000e+00	2.90503570e-03	1.10064913e-04
1.55500000e+00	2.90428956e-03	1.07547936e-04
1.56000000e+00	2.88961280e-03	1.07178619e-04
1.56500000e+00	2.89291076e-03	1.06727553e-04
1.57000000e+00	2.85403352e-03	1.04610740e-04
1.57500000e+00	2.85576186e-03	1.02719968e-04
1.58000000e+00	2.84636875e-03	1.02247153e-04
1.58500000e+00	2.86206474e-03	1.02848316e-04
1.59000000e+00	2.84189706e-03	1.02123138e-04
1.59500000e+00	2.84642844e-03	1.00376761e-04
1.60000000e+00	2.83070365e-03	9.97441603e-05
1.60500000e+00	2.83532069e-03	9.99521812e-05
1.61000000e+00	2.79647394e-03	9.81382365e-05
1.61500000e+00	2.81118441e-03	9.78028111e-05
1.62000000e+00	2.79575282e-03	9.76729418e-05
1.62500000e+00	2.78704083e-03	9.85042294e-05
1.63000000e+00	2.76534959e-03	9.66888071e-05
1.63500000e+00	2.79669344e-03	9.77240791e-05
1.64000000e+00	2.73615093e-03	9.56627564e-05
1.64500000e+00	2.75129044e-03	9.72591297e-05
1.65000000e+00	2.72040139e-03	9.52578898e-05
1.65500000e+00	2.71721947e-03	9.49032296e-05
1.66000000e+00	2.72376550e-03	9.52800296e-05
1.66500000e+00	2.67786357e-03	9.52437154e-05
1.67000000e+00	2.69013325e-03	9.37050967e-05
1.67500000e+00	2.69045256e-03	9.39389147e-05
1.68000000e+00	2.68660442e-03	9.41101707e-05
1.68500000e+00	2.66501741e-03	9.49271217e-05
1.69000000e+00	2.69035634e-03	9.39018343e-05
1.69500000e+00	2.65859576e-03	9.27125745e-05
1.70000000e+00	2.64044814e-03	9.30406958e-05
1.70500000e+00	2.62856212e-03	9.30758893e-05
1.71000000e+00	2.62319630e-03	9.17316709e-05
1.71500000e+00	2.65513747e-03	9.27417828e-05
1.72000000e+00	2.62026947e-03	9.22693819e-05
1.72500000e+00	2.60982813e-03	9.24445469e-05
1.73000000e+00	2.61086645e-03	9.12171436e-05
1.73500000e+00	2.61072019e-03	9.15219855e-05
1.74000000e+00	2.60152467e-03	9.14235528e-05
1.74500000e+00	2.59812317e-03	9.23609033e-05
1.75000000e+00	2.58936029e-03	9.03847550e-05
1.75500000e+00	2.58456657e-03	9.06948905e-05
1.76000000e+00	2.56108050e-03	8.98704866e-05
1.76500000e+00	2.55492942e-03	9.07781387e-05
1.77000000e+00	2.57498202e-03	8.99819409e-05
1.77500000e+00	2.54120456e-03	8.90617500e-05
1.78000000e+00	2.51974010e-03	8.86372864e-05
1.78500000e+00	2.51098992e-03	8.91759747e-05
1.79000000e+00	2.51589252e-03	8.79279657e-05
1.79500000e+00	2.51460767e-03	8.80838893e-05
1.80000000e+00	2.49887689e-03	8.80081681e-05
1.80500000e+00	2.47710895e-03	8.78251184e-05
1.81000000e+00	2.48457357e-03	8.68494553e-05
1.81500000e+00	2.48784320e-03	8.70123904e-05
1.82000000e+00	2.48606909e-03	8.74751620e-05
1.82500000e+00	2.46883079e-03	8.74847750e-05
1.83000000e+00	2.46671651e-03	8.62287469e-05
1.83500000e+00	2.46389575e-03	8.63157608e-05
1.84000000e+00	2.44362194e-03	8.61310673e-05
1.84500000e+00	2.44847466e-03	8.67369560e-05
1.85000000e+00	2.43692348e-03	8.53809951e-05
1.85500000e+00	2.44669757e-03	8.56926248e-05
1.86000000e+00	2.40541886e-03	8.48464624e-05
1.86500000e+00	2.40082479e-03	8.49693343e-05
1.87000000e+00	2.39295383e-03	8.36473150e-05
1.87500000e+00	2.40654605e-03	8.44553522e-05
1.88000000e+00	2.37657864e-03	8.37467152e-05
1.88500000e+00	2.38384414e-03	8.46612805e-05
1.89000000e+00	2.37727104e-03	8.30982671e-05
1.89500000e+00	2.38060502e-03	8.37140500e-05
1.90000000e+00	2.36769482e-03	8.35430711e-05
1.90500000e+00	2.36075520e-03	8.33306607e-05
1.91000000e+00	2.34977339e-03	8.24529569e-05
1.91500000e+00	2.33265099e-03	8.18191101e-05
1.92000000e+00	2.33147112e-03	8.22489461e-05
1.92500000e+00	2.33554368e-03	8.24804582e-05
1.93000000e+00	2.31806078e-03	8.11478401e-05
1.93500000e+00	2.33007180e-03	8.18245255e-05
1.94000000e+00	2.28610040e-03	8.08238638e-05
1.94500000e+00	2.30390483e-03	8.12666410e-05
1.95000000e+00	2.29309094e-03	8.01936300e-05
1.95500000e+00	2.29224709e-03	8.04271686e-05
1.96000000e+00	2.28233783e-03	8.06178650e-05
1.96500000e+00	2.28446372e-03	8.07347927e-05
1.97000000e+00	2.26254733e-03	7.90798741e-05
1.97500000e+00	2.25427881e-03	7.91875953e-05
1.98000000e+00	2.25632734e-03	7.96299926e-05
1.98500000e+00	2.25848497e-03	7.98450631e-05
1.99000000e+00	2.21902478e-03	7.75112912e-05
1.99500000e+00	2.24024173e-03	7.86174838e-05
2.00000000e+00	2.22878254e-03	7.87196528e-05
2.00500000e+00	2.24276985e-03	7.94525725e-05
2.01000000e+00	2.22656982e-03	8.65041319e-05
2.01500000e+00	2.20055305e-03	9.07530653e-05
2.02000000e+00	2.18285396e-03	9.60673658e-05
2.02500000e+00	2.15705398e-03	9.85768389e-05
2.03000000e+00	2.15069004e-03	1.04118796e-04
2.03500000e+00	2.13692799e-03	1.08020734e-04
2.04000000e+00	2.14267734e-03	1.13279359e-04
2.04500000e+00	2.09705293e-03	1.16790030e-04
2.05000000e+00	2.07402464e-03	1.21266519e-04
2.05500000e+00	2.08303440e-03	1.19374214e-04
2.06000000e+00	2.14835592e-03	1.07006807e-04
2.06500000e+00	2.14913561e-03	1.02308582e-04
2.07000000e+00	2.15274350e-03	9.68936902e-05
2.07500000e+00	2.24707303e-03	1.03322068e-04
2.08000000e+00	2.23501722e-03	9.84444446e-05
2.08500000e+00	2.16167596e-03	9.41314199e-05
2.09000000e+00	2.12583154e-03	8.98271514e-05
2.09500000e+00	2.10562779e-03	8.80292148e-05
2.10000000e+00	2.11262811e-03	8.77740270e-05
2.10500000e+00	2.08067826e-03	8.61072449e-05
2.11000000e+00	2.05384439e-03	8.18679737e-05
2.11500000e+00	2.07384809e-03	8.18942981e-05
2.12000000e+00	2.04741917e-03	8.04249471e-05
2.12500000e+00	2.03082351e-03	7.95736664e-05
2.13000000e+00	2.01809346e-03	7.58221288e-05
2.13500000e+00	2.01065213e-03	7.46579667e-05
2.14000000e+00	1.98090920e-03	7.29102436e-05
2.14500000e+00	1.97219116e-03	7.27310831e-05
2.15000000e+00	1.96988055e-03	7.03037360e-05
2.15500000e+00	1.96724984e-03	7.03029250e-05
2.16000000e+00	1.95527541e-03	6.94845999e-05
2.16500000e+00	1.94725599e-03	6.97514117e-05
2.17000000e+00	1.95709675e-03	6.84125267e-05
2.17500000e+00	1.93916492e-03	6.79516192e-05
2.18000000e+00	1.92424466e-03	6.76344057e-05
2.18500000e+00	1.92777909e-03	6.80622115e-05
2.19000000e+00	1.90697438e-03	6.72018216e-05
2.19500000e+00	1.88832503e-03	6.61654273e-05
2.20000000e+00	1.88436705e-03	6.61712883e-05
2.20500000e+00	1.87792448e-03	6.61009185e-05
2.21000000e+00	1.85227585e-03	6.55535957e-05
2.21500000e+00	1.86897545e-03	6.54561384e-05
2.22000000e+00	1.83092191e-03	6.40820881e-05
2.22500000e+00	1.80744594e-03	6.37642377e-05
2.23000000e+00	1.83904543e-03	6.51933444e-05
2.23500000e+00	1.81332414e-03	6.33961254e-05
2.24000000e+00	1.79769478e-03	6.29611580e-05
2.24500000e+00	1.79118925e-03	6.32037019e-05
2.25000000e+00	1.75894194e-03	6.26155723e-05
2.25500000e+00	1.76842040e-03	6.17241086e-05
2.26000000e+00	1.77541054e-03	6.22459054e-05
2.26500000e+00	1.72668973e-03	6.06798372e-05
2.27000000e+00	1.73451531e-03	6.18730664e-05
2.27500000e+00	1.72944800e-03	6.04606800e-05
2.28000000e+00	1.70149400e-03	5.94660934e-05
2.28500000e+00	1.69696352e-03	5.97476850e-05
2.29000000e+00	1.68345684e-03	5.95591531e-05
2.29500000e+00	1.67695436e-03	5.91427880e-05
2.30000000e+00	1.65525965e-03	5.78199160e-05
2.30500000e+00	1.64954899e-03	5.77845793e-05
2.31000000e+00	1.65004339e-03	5.80664063e-05
2.31500000e+00	1.63637080e-03	5.81612254e-05
2.32000000e+00	1.60870109e-03	5.59736633e-05
2.32500000e+00	1.61536150e-03	5.66697084e-05
2.33000000e+00	1.61879307e-03	5.68774036e-05
2.33500000e+00	1.59708833e-03	5.67877642e-05
2.34000000e+00	1.59342468e-03	5.56114588e-05
2.34500000e+00	1.60006636e-03	5.58350955e-05
2.35000000e+00	1.58160068e-03	5.54446420e-05
2.35500000e+00	1.57738916e-03	5.60328480e-05
2.36000000e+00	1.55576108e-03	5.45386823e-05
2.36500000e+00	1.55402711e-03	5.43474803e-05
2.37000000e+00	1.52966116e-03	5.35805326e-05
2.37500000e+00	1.51915793e-03	5.36409768e-05
2.38000000e+00	1.52963414e-03	5.42127421e-05
2.38500000e+00	1.51249018e-03	5.28788241e-05
2.39000000e+00	1.49765596e-03	5.25681166e-05
2.39500000e+00	1.49764929e-03	5.28425409e-05
2.40000000e+00	1.49018897e-03	5.32674565e-05
2.40500000e+00	1.48203890e-03	5.20081705e-05
2.41000000e+00	1.45625104e-03	5.12890894e-05
2.41500000e+00	1.46622844e-03	5.16700200e-05
2.42000000e+00	1.44536499e-03	5.15585009e-05
2.42500000e+00	1.44400475e-03	5.14833812e-05
2.43000000e+00	1.43073821e-03	5.05217360e-05
2.43500000e+00	1.44335133e-03	5.11710576e-05
2.44000000e+00	1.44700333e-03	5.13260347e-05
2.44500000e+00	1.41597351e-03	5.09828765e-05
2.45000000e+00	1.41448582e-03	4.99367700e-05
2.45500000e+00	1.38972107e-03	4.92756547e-05
2.46000000e+00	1.38224840e-03	4.91559565e-05
2.46500000e+00	1.39705995e-03	5.02815478e-05
2.47000000e+00	1.36027637e-03	4.84283960e-05
2.47500000e+00	1.35979759e-03	4.82009662e-05
2.48000000e+00	1.36275049e-03	4.87835216e-05
2.48500000e+00	1.34401127e-03	4.80578787e-05
2.49000000e+00	1.34209044e-03	4.86948318e-05
2.49500000e+00	1.33932600e-03	4.76634576e-05
2.50000000e+00	1.32884455e-03	4.73647611e-05
2.50500000e+00	1.30225218e-03	4.66787544e-05
2.51000000e+00	1.29017511e-03	4.66157628e-05
2.51500000e+00	1.30575010e-03	4.72716906e-05
2.52000000e+00	1.29838558e-03	4.65523770e-05
2.52500000e+00	1.30208352e-03	4.69056064e-05
2.53000000e+00	1.29473331e-03	4.70452178e-05
2.53500000e+00	1.27179116e-03	4.68174889e-05
2.54000000e+00	1.26003549e-03	4.55748078e-05
2.54500000e+00	1.24924928e-03	4.54067697e-05
2.55000000e+00	1.25753630e-03	4.58621192e-05
2.55500000e+00	1.24025127e-03	4.56164268e-05
2.56000000e+00	1.24480340e-03	4.60695680e-05
2.56500000e+00	1.22827410e-03	4.50812519e-05
2.57000000e+00	1.23694046e-03	4.55882311e-05
2.57500000e+00	1.23002661e-03	4.54868609e-05
2.58000000e+00	1.20563312e-03	4.53176711e-05
2.58500000e+00	1.20177741e-03	4.48187803e-05
2.59000000e+00	1.20783615e-03	4.48649521e-05
2.59500000e+00	1.17925231e-03	4.38808234e-05
2.60000000e+00	1.17472528e-03	4.41341877e-05
2.60500000e+00	1.17716560e-03	4.52614037e-05
2.61000000e+00	1.19091583e-03	5.20746901e-05
2.61500000e+00	1.18209024e-03	5.72402549e-05
2.62000000e+00	1.13459104e-03	6.03501928e-05
2.62500000e+00	1.14703632e-03	6.60229336e-05
2.63000000e+00	1.14658775e-03	7.30190425e-05
2.63500000e+00	1.17292501e-03	8.28576880e-05
2.64000000e+00	1.17870958e-03	9.19200355e-05
2.64500000e+00	1.17330383e-03	9.74633989e-05
2.65000000e+00	1.18271655e-03	1.04116415e-04
2.65500000e+00	1.11800492e-03	1.05493268e-04
2.66000000e+00	1.18957332e-03	1.20236475e-04
2.66500000e+00	1.09897828e-03	1.24846107e-04
2.67000000e+00	1.07975367e-03	1.33808558e-04
2.67500000e+00	1.11788574e-03	1.60390614e-04
2.68000000e+00	1.09670644e-03	1.84365973e-04
2.68500000e+00	1.10137568e-03	2.42821230e-04
2.69000000e+00	1.12615477e-03	4.01875485e-04
2.69500000e+00	0.00000000e+00	0.00000000e+00
2.70000000e+00	0.00000000e+00	0.00000000e+00
