% Filename : WDL7_00012_00100.h5
% Date & Time : 30-Oct-2025 14:52:07
% X-ray Energy (keV) : 13.30001
% Exposure Time (s) : 0.500
% Photodiode Value : 135271.000
% I0 of Sample : 0
% I0 of Standard : 1
% 
% q(A^-1)   I(q)    I(q)_SE
8.40000000e-01	0.00000000e+00	0.00000000e+00
8.45000000e-01	2.91204615e-03	5.09935326e-04
8.50000000e-01	2.65165612e-03	2.46759926e-04
8.55000000e-01	2.61115056e-03	2.13752227e-04
8.60000000e-01	2.59955013e-03	1.83926662e-04
8.65000000e-01	2.58797724e-03	1.68605821e-04
8.70000000e-01	2.60560179e-03	1.62089591e-04
8.75000000e-01	2.62422619e-03	1.57053263e-04
8.80000000e-01	2.62747018e-03	1.51910517e-04
8.85000000e-01	2.62396900e-03	1.43572497e-04
8.90000000e-01	2.64342466e-03	1.41567652e-04
8.95000000e-01	2.64533508e-03	1.37584762e-04
9.00000000e-01	2.64699890e-03	1.36446118e-04
9.05000000e-01	2.64311177e-03	1.30156276e-04
9.10000000e-01	2.68838011e-03	1.30028488e-04
9.15000000e-01	2.66792320e-03	1.26935981e-04
9.20000000e-01	2.66661431e-03	1.26602218e-04
9.25000000e-01	2.68270459e-03	1.21900908e-04
9.30000000e-01	2.68313146e-03	1.20832987e-04
9.35000000e-01	2.66948221e-03	1.17967179e-04
9.40000000e-01	2.68815132e-03	1.19024613e-04
9.45000000e-01	2.70757896e-03	1.16871653e-04
9.50000000e-01	2.72098989e-03	1.15713161e-04
9.55000000e-01	2.72120673e-03	1.13737526e-04
9.60000000e-01	2.71587493e-03	1.13576419e-04
9.65000000e-01	2.73983927e-03	1.12636025e-04
9.70000000e-01	2.73355801e-03	1.10509712e-04
9.75000000e-01	2.71700357e-03	1.08673168e-04
9.80000000e-01	2.72950035e-03	1.08322738e-04
9.85000000e-01	2.72567372e-03	1.08298089e-04
9.90000000e-01	2.74869368e-03	1.05899348e-04
9.95000000e-01	2.72642299e-03	1.04575526e-04
1.00000000e+00	2.72565575e-03	1.03989005e-04
1.00500000e+00	2.76081855e-03	1.05372244e-04
1.01000000e+00	2.76024519e-03	1.03040512e-04
1.01500000e+00	2.73220604e-03	1.01072822e-04
1.02000000e+00	2.72672229e-03	1.00847942e-04
1.02500000e+00	2.74244893e-03	1.00189151e-04
1.03000000e+00	2.73512663e-03	9.95940833e-05
1.03500000e+00	2.73980932e-03	9.83371454e-05
1.04000000e+00	2.71360807e-03	9.68012503e-05
1.04500000e+00	2.72218756e-03	9.72011517e-05
1.05000000e+00	2.70075137e-03	9.57618426e-05
1.05500000e+00	2.69032085e-03	9.39994279e-05
1.06000000e+00	2.70695276e-03	9.43966974e-05
1.06500000e+00	2.69862198e-03	9.41575081e-05
1.07000000e+00	2.72193915e-03	9.48239057e-05
1.07500000e+00	2.72403545e-03	9.41652582e-05
1.08000000e+00	2.74721532e-03	9.43265209e-05
1.08500000e+00	2.73225814e-03	9.38954279e-05
1.09000000e+00	2.72775560e-03	9.43605156e-05
1.09500000e+00	2.73338671e-03	9.26675825e-05
1.10000000e+00	2.73631601e-03	9.33105095e-05
1.10500000e+00	2.73601897e-03	9.35624876e-05
1.11000000e+00	2.75967335e-03	9.45776978e-05
1.11500000e+00	2.75503764e-03	9.37128306e-05
1.12000000e+00	2.78676278e-03	9.51340666e-05
1.12500000e+00	2.79163831e-03	9.51223592e-05
1.13000000e+00	2.79437353e-03	9.63113429e-05
1.13500000e+00	2.80047352e-03	9.54206360e-05
1.14000000e+00	2.82030284e-03	9.57727239e-05
1.14500000e+00	2.83386711e-03	9.71469551e-05
1.15000000e+00	2.82509631e-03	9.73639933e-05
1.15500000e+00	2.82993540e-03	9.64637312e-05
1.16000000e+00	2.84742238e-03	9.73998217e-05
1.16500000e+00	2.85040943e-03	9.73615359e-05
1.17000000e+00	2.84177540e-03	9.82948295e-05
1.17500000e+00	2.84919629e-03	9.72006398e-05
1.18000000e+00	2.83680022e-03	9.71049405e-05
1.18500000e+00	2.86928374e-03	9.80652331e-05
1.19000000e+00	2.85945754e-03	9.87498971e-05
1.19500000e+00	2.88070298e-03	9.83242709e-05
1.20000000e+00	2.87008241e-03	9.84131690e-05
1.20500000e+00	2.89574139e-03	9.92357091e-05
1.21000000e+00	2.87485950e-03	9.98267646e-05
1.21500000e+00	2.87538843e-03	9.83808315e-05
1.22000000e+00	2.88547464e-03	9.86200431e-05
1.22500000e+00	2.90484171e-03	9.96850424e-05
1.23000000e+00	2.87088099e-03	9.92831553e-05
1.23500000e+00	2.90615199e-03	9.98603154e-05
1.24000000e+00	2.90425297e-03	9.93814451e-05
1.24500000e+00	2.90459489e-03	1.00083561e-04
1.25000000e+00	2.85901013e-03	9.90931146e-05
1.25500000e+00	2.91948939e-03	9.98826431e-05
1.26000000e+00	2.89983075e-03	9.98249351e-05
1.26500000e+00	2.92346314e-03	1.00258172e-04
1.27000000e+00	2.89569852e-03	1.00855415e-04
1.27500000e+00	2.92111783e-03	1.00645885e-04
1.28000000e+00	2.89971723e-03	9.93479288e-05
1.28500000e+00	2.90604474e-03	1.00056758e-04
1.29000000e+00	2.92302071e-03	1.01625908e-04
1.29500000e+00	2.90657065e-03	9.99330377e-05
1.30000000e+00	2.89067300e-03	9.92746095e-05
1.30500000e+00	2.90892693e-03	1.00282059e-04
1.31000000e+00	2.92040777e-03	1.01925617e-04
1.31500000e+00	2.93884940e-03	1.01235390e-04
1.32000000e+00	2.93490392e-03	1.00975177e-04
1.32500000e+00	2.92572460e-03	1.00979214e-04
1.33000000e+00	2.92198009e-03	1.02058436e-04
1.33500000e+00	2.93450266e-03	1.01051111e-04
1.34000000e+00	2.90749980e-03	1.00210571e-04
1.34500000e+00	2.92152793e-03	1.01109940e-04
1.35000000e+00	2.91154425e-03	1.01712591e-04
1.35500000e+00	2.92472986e-03	1.00753831e-04
1.36000000e+00	2.92455020e-03	1.00601855e-04
1.36500000e+00	2.91869493e-03	1.00748943e-04
1.37000000e+00	2.89848793e-03	1.01552733e-04
1.37500000e+00	2.89702686e-03	9.99002168e-05
1.38000000e+00	2.92204997e-03	1.01057523e-04
1.38500000e+00	2.89631984e-03	1.00750566e-04
1.39000000e+00	2.90921750e-03	1.01716329e-04
1.39500000e+00	2.90007357e-03	9.99174922e-05
1.40000000e+00	2.93736411e-03	1.04427942e-04
1.40500000e+00	2.87554683e-03	1.09936410e-04
1.41000000e+00	2.87821807e-03	1.15155452e-04
1.41500000e+00	2.86232250e-03	1.18798156e-04
1.42000000e+00	2.82303092e-03	1.21937936e-04
1.42500000e+00	2.83153817e-03	1.25698773e-04
1.43000000e+00	2.82938794e-03	1.30438898e-04
1.43500000e+00	2.82439601e-03	1.34254600e-04
1.44000000e+00	2.79304679e-03	1.38011563e-04
1.44500000e+00	2.77717035e-03	1.40592048e-04
1.45000000e+00	2.84476962e-03	1.39455909e-04
1.45500000e+00	2.86760399e-03	1.26355321e-04
1.46000000e+00	2.88141578e-03	1.23756488e-04
1.46500000e+00	2.85987445e-03	1.20831032e-04
1.47000000e+00	2.84997348e-03	1.20309210e-04
1.47500000e+00	2.85582927e-03	1.16796279e-04
1.48000000e+00	2.84445363e-03	1.15052923e-04
1.48500000e+00	2.88093867e-03	1.16623392e-04
1.49000000e+00	2.82979301e-03	1.14895456e-04
1.49500000e+00	2.88238568e-03	1.14417794e-04
1.50000000e+00	2.86633170e-03	1.13490896e-04
1.50500000e+00	2.84364181e-03	1.13069377e-04
1.51000000e+00	2.85947160e-03	1.13830196e-04
1.51500000e+00	2.84824838e-03	1.11645194e-04
1.52000000e+00	2.89005749e-03	1.12806789e-04
1.52500000e+00	2.86183190e-03	1.11613190e-04
1.53000000e+00	2.89256172e-03	1.13514335e-04
1.53500000e+00	2.84538904e-03	1.08477020e-04
1.54000000e+00	2.85171519e-03	1.08569013e-04
1.54500000e+00	2.83198576e-03	1.07641501e-04
1.55000000e+00	2.84356868e-03	1.07704277e-04
1.55500000e+00	2.82652404e-03	1.04715221e-04
1.56000000e+00	2.81677615e-03	1.04601074e-04
1.56500000e+00	2.78921893e-03	1.02977755e-04
1.57000000e+00	2.79116161e-03	1.02287639e-04
1.57500000e+00	2.79241448e-03	1.00517309e-04
1.58000000e+00	2.77124944e-03	9.95375813e-05
1.58500000e+00	2.76433277e-03	9.93137237e-05
1.59000000e+00	2.76798190e-03	9.95265191e-05
1.59500000e+00	2.74391240e-03	9.67278270e-05
1.60000000e+00	2.74627641e-03	9.67561071e-05
1.60500000e+00	2.74240544e-03	9.66940406e-05
1.61000000e+00	2.73741787e-03	9.61247903e-05
1.61500000e+00	2.71112426e-03	9.43550835e-05
1.62000000e+00	2.71864688e-03	9.50724211e-05
1.62500000e+00	2.70326609e-03	9.55708545e-05
1.63000000e+00	2.71342736e-03	9.48392678e-05
1.63500000e+00	2.70826264e-03	9.46537511e-05
1.64000000e+00	2.71338874e-03	9.48766293e-05
1.64500000e+00	2.67543692e-03	9.47110137e-05
1.65000000e+00	2.68466456e-03	9.39142814e-05
1.65500000e+00	2.67291087e-03	9.33840021e-05
1.66000000e+00	2.70276440e-03	9.45254606e-05
1.66500000e+00	2.66686784e-03	9.48591620e-05
1.67000000e+00	2.65779021e-03	9.26281697e-05
1.67500000e+00	2.66949087e-03	9.31941293e-05
1.68000000e+00	2.64893161e-03	9.28591733e-05
1.68500000e+00	2.64241959e-03	9.41121568e-05
1.69000000e+00	2.61744606e-03	9.13468184e-05
1.69500000e+00	2.62571864e-03	9.15811044e-05
1.70000000e+00	2.62125392e-03	9.23994295e-05
1.70500000e+00	2.62465111e-03	9.29622466e-05
1.71000000e+00	2.61265742e-03	9.12981356e-05
1.71500000e+00	2.61738286e-03	9.15648912e-05
1.72000000e+00	2.60169406e-03	9.15515515e-05
1.72500000e+00	2.59942849e-03	9.21147501e-05
1.73000000e+00	2.59680493e-03	9.07330588e-05
1.73500000e+00	2.56802927e-03	9.00681032e-05
1.74000000e+00	2.59767418e-03	9.12888531e-05
1.74500000e+00	2.56288248e-03	9.11257589e-05
1.75000000e+00	2.55878282e-03	8.93016335e-05
1.75500000e+00	2.55511467e-03	8.96934562e-05
1.76000000e+00	2.56242642e-03	8.99364206e-05
1.76500000e+00	2.54797652e-03	9.04960002e-05
1.77000000e+00	2.53704984e-03	8.86824005e-05
1.77500000e+00	2.53979201e-03	8.89937576e-05
1.78000000e+00	2.51343299e-03	8.84126883e-05
1.78500000e+00	2.51751343e-03	8.94465047e-05
1.79000000e+00	2.50597545e-03	8.75698079e-05
1.79500000e+00	2.51645023e-03	8.81135563e-05
1.80000000e+00	2.50072031e-03	8.81771584e-05
1.80500000e+00	2.48391577e-03	8.80563311e-05
1.81000000e+00	2.48299901e-03	8.67838813e-05
1.81500000e+00	2.46562514e-03	8.62378066e-05
1.82000000e+00	2.46582015e-03	8.68450164e-05
1.82500000e+00	2.47780145e-03	8.77736655e-05
1.83000000e+00	2.45140541e-03	8.56857385e-05
1.83500000e+00	2.45403592e-03	8.60334509e-05
1.84000000e+00	2.44132214e-03	8.59432303e-05
1.84500000e+00	2.46930979e-03	8.74372753e-05
1.85000000e+00	2.43154226e-03	8.51634683e-05
1.85500000e+00	2.40981409e-03	8.44841958e-05
1.86000000e+00	2.42705205e-03	8.57129635e-05
1.86500000e+00	2.41551198e-03	8.54581490e-05
1.87000000e+00	2.41043947e-03	8.43341731e-05
1.87500000e+00	2.41051155e-03	8.45791747e-05
1.88000000e+00	2.39253761e-03	8.44050553e-05
1.88500000e+00	2.37901000e-03	8.43391682e-05
1.89000000e+00	2.38911914e-03	8.35142252e-05
1.89500000e+00	2.37343748e-03	8.34089082e-05
1.90000000e+00	2.36864473e-03	8.35376082e-05
1.90500000e+00	2.33453321e-03	8.24055186e-05
1.91000000e+00	2.33010183e-03	8.16269127e-05
1.91500000e+00	2.32303633e-03	8.14544400e-05
1.92000000e+00	2.32772274e-03	8.20899185e-05
1.92500000e+00	2.34395031e-03	8.27171813e-05
1.93000000e+00	2.32913548e-03	8.15276952e-05
1.93500000e+00	2.30214652e-03	8.07891349e-05
1.94000000e+00	2.29703984e-03	8.13414985e-05
1.94500000e+00	2.31298168e-03	8.16197614e-05
1.95000000e+00	2.29714041e-03	8.02997802e-05
1.95500000e+00	2.29947241e-03	8.06658940e-05
1.96000000e+00	2.30111649e-03	8.12940867e-05
1.96500000e+00	2.27663921e-03	8.04738136e-05
1.97000000e+00	2.25383088e-03	7.86796809e-05
1.97500000e+00	2.25266428e-03	7.92247725e-05
1.98000000e+00	2.24543135e-03	7.92904948e-05
1.98500000e+00	2.24397826e-03	7.93908437e-05
1.99000000e+00	2.24097537e-03	7.82729629e-05
1.99500000e+00	2.22818160e-03	7.82211688e-05
2.00000000e+00	2.22030685e-03	7.84641786e-05
2.00500000e+00	2.24545548e-03	7.94716893e-05
2.01000000e+00	2.22224873e-03	8.63855964e-05
2.01500000e+00	2.20584847e-03	9.10379639e-05
2.02000000e+00	2.16789382e-03	9.52931809e-05
2.02500000e+00	2.16035046e-03	9.87779159e-05
2.03000000e+00	2.15940885e-03	1.04592191e-04
2.03500000e+00	2.14563006e-03	1.08510291e-04
2.04000000e+00	2.10609725e-03	1.11405240e-04
2.04500000e+00	2.07883078e-03	1.15584099e-04
2.05000000e+00	2.09204476e-03	1.22364808e-04
2.05500000e+00	2.16257834e-03	1.23879158e-04
2.06000000e+00	2.14296403e-03	1.06832808e-04
2.06500000e+00	2.11047036e-03	1.00478667e-04
2.07000000e+00	2.08985207e-03	9.42536157e-05
2.07500000e+00	2.09295860e-03	9.21801775e-05
2.08000000e+00	2.11697767e-03	9.30584761e-05
2.08500000e+00	2.11083422e-03	9.19232752e-05
2.09000000e+00	2.11947285e-03	8.95804372e-05
2.09500000e+00	2.10813739e-03	8.81588182e-05
2.10000000e+00	2.10154599e-03	8.73578332e-05
2.10500000e+00	2.06900109e-03	8.56547752e-05
2.11000000e+00	2.06448847e-03	8.23023176e-05
2.11500000e+00	2.06067295e-03	8.13271717e-05
2.12000000e+00	2.04818991e-03	8.03688929e-05
2.12500000e+00	2.03966896e-03	7.99189352e-05
2.13000000e+00	2.00346150e-03	7.52584559e-05
2.13500000e+00	1.99245946e-03	7.39493921e-05
2.14000000e+00	1.99883066e-03	7.35143350e-05
2.14500000e+00	2.00486992e-03	7.39465642e-05
2.15000000e+00	1.97208498e-03	7.03606025e-05
2.15500000e+00	1.96521913e-03	7.03278393e-05
2.16000000e+00	1.95353683e-03	6.94658995e-05
2.16500000e+00	1.93943713e-03	6.95549394e-05
2.17000000e+00	1.91901574e-03	6.70405487e-05
2.17500000e+00	1.92476245e-03	6.74395638e-05
2.18000000e+00	1.92021724e-03	6.74620231e-05
2.18500000e+00	1.89977827e-03	6.71299235e-05
2.19000000e+00	1.88386851e-03	6.63774179e-05
2.19500000e+00	1.88174104e-03	6.59082998e-05
2.20000000e+00	1.88312026e-03	6.60982481e-05
2.20500000e+00	1.87072130e-03	6.58720537e-05
2.21000000e+00	1.85244449e-03	6.55727291e-05
2.21500000e+00	1.83175473e-03	6.41726378e-05
2.22000000e+00	1.83625908e-03	6.42310345e-05
2.22500000e+00	1.81571641e-03	6.40350868e-05
2.23000000e+00	1.81822550e-03	6.45473986e-05
2.23500000e+00	1.81354445e-03	6.35044426e-05
2.24000000e+00	1.77901941e-03	6.23368867e-05
2.24500000e+00	1.77325279e-03	6.24640871e-05
2.25000000e+00	1.75825539e-03	6.25599685e-05
2.25500000e+00	1.76141103e-03	6.15282139e-05
2.26000000e+00	1.74563791e-03	6.12074028e-05
2.26500000e+00	1.72026612e-03	6.05001256e-05
2.27000000e+00	1.72244370e-03	6.14793507e-05
2.27500000e+00	1.71893688e-03	6.00621977e-05
2.28000000e+00	1.70101266e-03	5.94431573e-05
2.28500000e+00	1.69212302e-03	5.96114668e-05
2.29000000e+00	1.67652231e-03	5.93103235e-05
2.29500000e+00	1.67304754e-03	5.90375006e-05
2.30000000e+00	1.65457094e-03	5.78789678e-05
2.30500000e+00	1.63150410e-03	5.71988364e-05
2.31000000e+00	1.62288934e-03	5.72106793e-05
2.31500000e+00	1.62873881e-03	5.78745745e-05
2.32000000e+00	1.61019405e-03	5.60320108e-05
2.32500000e+00	1.61844187e-03	5.68350186e-05
2.33000000e+00	1.59424597e-03	5.60484896e-05
2.33500000e+00	1.58014028e-03	5.61833755e-05
2.34000000e+00	1.56618537e-03	5.47193597e-05
2.34500000e+00	1.54280947e-03	5.39271392e-05
2.35000000e+00	1.57075750e-03	5.51272183e-05
2.35500000e+00	1.55001686e-03	5.50745271e-05
2.36000000e+00	1.53788584e-03	5.38426362e-05
2.36500000e+00	1.52364906e-03	5.33298786e-05
2.37000000e+00	1.51596618e-03	5.30683803e-05
2.37500000e+00	1.49925368e-03	5.29594329e-05
2.38000000e+00	1.48801388e-03	5.28315337e-05
2.38500000e+00	1.48253943e-03	5.18945142e-05
2.39000000e+00	1.46959685e-03	5.15748661e-05
2.39500000e+00	1.47035111e-03	5.18121400e-05
2.40000000e+00	1.45888015e-03	5.22580372e-05
2.40500000e+00	1.47284475e-03	5.17012817e-05
2.41000000e+00	1.44248091e-03	5.07783452e-05
2.41500000e+00	1.43730652e-03	5.05984866e-05
2.42000000e+00	1.42657154e-03	5.08933542e-05
2.42500000e+00	1.40860158e-03	5.01365473e-05
2.43000000e+00	1.40917467e-03	4.97257144e-05
2.43500000e+00	1.41480047e-03	5.00774707e-05
2.44000000e+00	1.39037762e-03	4.93127198e-05
2.44500000e+00	1.38267613e-03	4.96778915e-05
2.45000000e+00	1.37483622e-03	4.85694817e-05
2.45500000e+00	1.34922633e-03	4.78560784e-05
2.46000000e+00	1.37800875e-03	4.90397453e-05
2.46500000e+00	1.34514840e-03	4.84405115e-05
2.47000000e+00	1.33631465e-03	4.76430034e-05
2.47500000e+00	1.33044295e-03	4.71507812e-05
2.48000000e+00	1.31236284e-03	4.69444430e-05
2.48500000e+00	1.30776044e-03	4.67763377e-05
2.49000000e+00	1.30195415e-03	4.71709117e-05
2.49500000e+00	1.28228050e-03	4.55801104e-05
2.50000000e+00	1.29501260e-03	4.61420071e-05
2.50500000e+00	1.29338935e-03	4.63671248e-05
2.51000000e+00	1.27840323e-03	4.61781425e-05
2.51500000e+00	1.28377601e-03	4.64041396e-05
2.52000000e+00	1.25186459e-03	4.48736586e-05
2.52500000e+00	1.24762078e-03	4.49282549e-05
2.53000000e+00	1.24129532e-03	4.51235617e-05
2.53500000e+00	1.24773728e-03	4.59624186e-05
2.54000000e+00	1.23917065e-03	4.47794129e-05
2.54500000e+00	1.22138364e-03	4.43799063e-05
2.55000000e+00	1.24137743e-03	4.53384266e-05
2.55500000e+00	1.18931722e-03	4.37927088e-05
2.56000000e+00	1.21553961e-03	4.49536932e-05
2.56500000e+00	1.20820972e-03	4.43295327e-05
2.57000000e+00	1.20400685e-03	4.43764352e-05
2.57500000e+00	1.17364882e-03	4.33685022e-05
2.58000000e+00	1.17869787e-03	4.42957387e-05
2.58500000e+00	1.17852155e-03	4.39172330e-05
2.59000000e+00	1.14417965e-03	4.26259063e-05
2.59500000e+00	1.15252977e-03	4.29887546e-05
2.60000000e+00	1.16123449e-03	4.36075113e-05
2.60500000e+00	1.16415299e-03	4.46901860e-05
2.61000000e+00	1.14306732e-03	5.00094471e-05
2.61500000e+00	1.13890949e-03	5.51497997e-05
2.62000000e+00	1.13145178e-03	6.02595942e-05
2.62500000e+00	1.11825780e-03	6.44045787e-05
2.63000000e+00	1.14318815e-03	7.28410302e-05
2.63500000e+00	1.11986880e-03	7.90159886e-05
2.64000000e+00	1.12476376e-03	8.76928049e-05
2.64500000e+00	1.08528373e-03	9.03277949e-05
2.65000000e+00	1.08191270e-03	9.51897348e-05
2.65500000e+00	1.13700384e-03	1.07498852e-04
2.66000000e+00	1.06187151e-03	1.07631442e-04
2.66500000e+00	1.12253853e-03	1.27791941e-04
2.67000000e+00	1.11529572e-03	1.37722864e-04
2.67500000e+00	1.05451444e-03	1.51745027e-04
2.68000000e+00	1.05653727e-03	1.78329586e-04
2.68500000e+00	1.17750099e-03	2.59924779e-04
2.69000000e+00	1.11610084e-03	3.99786450e-04
2.69500000e+00	0.00000000e+00	0.00000000e+00
2.70000000e+00	0.00000000e+00	0.00000000e+00
