% Filename : WDL7c_00027_00001.h5
% Date & Time : 30-Oct-2025 17:06:21
% X-ray Energy (keV) : 13.30001
% Exposure Time (s) : 0.500
% Photodiode Value : 140748.000
% I0 of Sample : 0
% I0 of Standard : 1
% 
% q(A^-1)   I(q)    I(q)_SE
8.40000000e-01	0.00000000e+00	0.00000000e+00
8.45000000e-01	3.28456779e-03	5.74012091e-04
8.50000000e-01	3.07801690e-03	2.85266374e-04
8.55000000e-01	3.03707593e-03	2.48233112e-04
8.60000000e-01	2.93432123e-03	2.07421841e-04
8.65000000e-01	2.98626553e-03	1.94603578e-04
8.70000000e-01	3.00576558e-03	1.86509786e-04
8.75000000e-01	2.97627371e-03	1.77810206e-04
8.80000000e-01	3.03558316e-03	1.75316854e-04
8.85000000e-01	3.04012611e-03	1.65861430e-04
8.90000000e-01	3.02548886e-03	1.61563637e-04
8.95000000e-01	3.04781737e-03	1.58242412e-04
9.00000000e-01	3.03779202e-03	1.56488643e-04
9.05000000e-01	3.06391581e-03	1.50654006e-04
9.10000000e-01	3.05884325e-03	1.47666949e-04
9.15000000e-01	3.07417688e-03	1.46139099e-04
9.20000000e-01	3.10867240e-03	1.47429931e-04
9.25000000e-01	3.10193511e-03	1.40759018e-04
9.30000000e-01	3.08985667e-03	1.38964192e-04
9.35000000e-01	3.09146992e-03	1.36237843e-04
9.40000000e-01	3.12815468e-03	1.38283835e-04
9.45000000e-01	3.12131217e-03	1.34482286e-04
9.50000000e-01	3.15018149e-03	1.33775041e-04
9.55000000e-01	3.14395645e-03	1.31139582e-04
9.60000000e-01	3.15079492e-03	1.31606968e-04
9.65000000e-01	3.17145556e-03	1.30161606e-04
9.70000000e-01	3.19538785e-03	1.28970802e-04
9.75000000e-01	3.15260276e-03	1.25959077e-04
9.80000000e-01	3.16996898e-03	1.25525539e-04
9.85000000e-01	3.20986860e-03	1.27147207e-04
9.90000000e-01	3.20078100e-03	1.22968012e-04
9.95000000e-01	3.20434824e-03	1.22605060e-04
1.00000000e+00	3.22891507e-03	1.22956235e-04
1.00500000e+00	3.22165673e-03	1.22592020e-04
1.01000000e+00	3.23053363e-03	1.20351898e-04
1.01500000e+00	3.23892764e-03	1.19538792e-04
1.02000000e+00	3.20918959e-03	1.18380170e-04
1.02500000e+00	3.22833908e-03	1.17511591e-04
1.03000000e+00	3.24551684e-03	1.17729770e-04
1.03500000e+00	3.23950376e-03	1.15904675e-04
1.04000000e+00	3.23227956e-03	1.14869151e-04
1.04500000e+00	3.18898431e-03	1.13458502e-04
1.05000000e+00	3.22102399e-03	1.13741065e-04
1.05500000e+00	3.21185967e-03	1.11609420e-04
1.06000000e+00	3.23154524e-03	1.12108692e-04
1.06500000e+00	3.22554349e-03	1.11961093e-04
1.07000000e+00	3.24120722e-03	1.12247935e-04
1.07500000e+00	3.25688999e-03	1.11987937e-04
1.08000000e+00	3.27476520e-03	1.11953725e-04
1.08500000e+00	3.29160136e-03	1.12575568e-04
1.09000000e+00	3.29564788e-03	1.13377408e-04
1.09500000e+00	3.27711721e-03	1.10509114e-04
1.10000000e+00	3.30389898e-03	1.12180502e-04
1.10500000e+00	3.32710728e-03	1.13276248e-04
1.11000000e+00	3.32418437e-03	1.13464944e-04
1.11500000e+00	3.32913427e-03	1.12572022e-04
1.12000000e+00	3.35279113e-03	1.13996626e-04
1.12500000e+00	3.38848103e-03	1.14902017e-04
1.13000000e+00	3.37829398e-03	1.15963708e-04
1.13500000e+00	3.39224194e-03	1.14981445e-04
1.14000000e+00	3.40363724e-03	1.15248705e-04
1.14500000e+00	3.41686623e-03	1.16621830e-04
1.15000000e+00	3.40568879e-03	1.16854122e-04
1.15500000e+00	3.43536969e-03	1.16527425e-04
1.16000000e+00	3.43513544e-03	1.17025756e-04
1.16500000e+00	3.46196847e-03	1.17861686e-04
1.17000000e+00	3.48027434e-03	1.19824949e-04
1.17500000e+00	3.48368243e-03	1.18289641e-04
1.18000000e+00	3.48929591e-03	1.18997674e-04
1.18500000e+00	3.48597704e-03	1.18715545e-04
1.19000000e+00	3.52252571e-03	1.21263458e-04
1.19500000e+00	3.49655676e-03	1.18917208e-04
1.20000000e+00	3.52439001e-03	1.20494049e-04
1.20500000e+00	3.51132729e-03	1.19887430e-04
1.21000000e+00	3.54309721e-03	1.22532157e-04
1.21500000e+00	3.56225029e-03	1.21244954e-04
1.22000000e+00	3.57395145e-03	1.21750474e-04
1.22500000e+00	3.56301166e-03	1.21994625e-04
1.23000000e+00	3.55693520e-03	1.22600615e-04
1.23500000e+00	3.57686159e-03	1.22441800e-04
1.24000000e+00	3.58836482e-03	1.22277157e-04
1.24500000e+00	3.59972881e-03	1.23636317e-04
1.25000000e+00	3.60071365e-03	1.24390757e-04
1.25500000e+00	3.58686718e-03	1.22399516e-04
1.26000000e+00	3.60044178e-03	1.23554414e-04
1.26500000e+00	3.62137361e-03	1.23903758e-04
1.27000000e+00	3.62679597e-03	1.25891479e-04
1.27500000e+00	3.62948197e-03	1.24710095e-04
1.28000000e+00	3.61615794e-03	1.23462822e-04
1.28500000e+00	3.63611966e-03	1.24821704e-04
1.29000000e+00	3.64206996e-03	1.26165744e-04
1.29500000e+00	3.65997126e-03	1.25529958e-04
1.30000000e+00	3.65612135e-03	1.25089853e-04
1.30500000e+00	3.67356663e-03	1.26266883e-04
1.31000000e+00	3.67929169e-03	1.28027646e-04
1.31500000e+00	3.69494505e-03	1.26893753e-04
1.32000000e+00	3.69339051e-03	1.26741489e-04
1.32500000e+00	3.68140219e-03	1.26641073e-04
1.33000000e+00	3.67781350e-03	1.28051448e-04
1.33500000e+00	3.68355628e-03	1.26500935e-04
1.34000000e+00	3.69923191e-03	1.27172188e-04
1.34500000e+00	3.72161229e-03	1.28469938e-04
1.35000000e+00	3.70357531e-03	1.29016801e-04
1.35500000e+00	3.72911045e-03	1.28126479e-04
1.36000000e+00	3.68739918e-03	1.26476975e-04
1.36500000e+00	3.68344927e-03	1.26792096e-04
1.37000000e+00	3.68191469e-03	1.28625382e-04
1.37500000e+00	3.71982005e-03	1.27939268e-04
1.38000000e+00	3.71412076e-03	1.28076580e-04
1.38500000e+00	3.70283073e-03	1.28342279e-04
1.39000000e+00	3.71574175e-03	1.29671866e-04
1.39500000e+00	3.72037697e-03	1.27892910e-04
1.40000000e+00	3.75467490e-03	1.32998740e-04
1.40500000e+00	3.70428286e-03	1.41197711e-04
1.41000000e+00	3.70640631e-03	1.47859953e-04
1.41500000e+00	3.67017806e-03	1.51845803e-04
1.42000000e+00	3.65685192e-03	1.57327137e-04
1.42500000e+00	3.67666547e-03	1.62802179e-04
1.43000000e+00	3.66467808e-03	1.68580021e-04
1.43500000e+00	3.65672500e-03	1.73333353e-04
1.44000000e+00	3.66498882e-03	1.80568959e-04
1.44500000e+00	3.61630255e-03	1.82581653e-04
1.45000000e+00	3.74951312e-03	1.83113318e-04
1.45500000e+00	3.74753947e-03	1.64350619e-04
1.46000000e+00	3.74350490e-03	1.60494862e-04
1.46500000e+00	3.72312613e-03	1.56840382e-04
1.47000000e+00	3.69556177e-03	1.55158296e-04
1.47500000e+00	3.73222583e-03	1.52232965e-04
1.48000000e+00	3.72424257e-03	1.50227897e-04
1.48500000e+00	3.70420328e-03	1.49641634e-04
1.49000000e+00	3.73778001e-03	1.51279491e-04
1.49500000e+00	3.74654639e-03	1.48278874e-04
1.50000000e+00	3.73948746e-03	1.47479202e-04
1.50500000e+00	3.77307515e-03	1.49618761e-04
1.51000000e+00	3.79835797e-03	1.50942410e-04
1.51500000e+00	3.83199040e-03	1.49852288e-04
1.52000000e+00	3.87339819e-03	1.50866194e-04
1.52500000e+00	3.83617735e-03	1.49356835e-04
1.53000000e+00	3.81030677e-03	1.49228436e-04
1.53500000e+00	3.77834421e-03	1.43707371e-04
1.54000000e+00	3.74514155e-03	1.42231282e-04
1.54500000e+00	3.74182395e-03	1.41869111e-04
1.55000000e+00	3.70362141e-03	1.39966464e-04
1.55500000e+00	3.73888863e-03	1.38186680e-04
1.56000000e+00	3.71054295e-03	1.37442213e-04
1.56500000e+00	3.67486351e-03	1.35492816e-04
1.57000000e+00	3.67066509e-03	1.34325532e-04
1.57500000e+00	3.66892499e-03	1.31679201e-04
1.58000000e+00	3.66248969e-03	1.31239446e-04
1.58500000e+00	3.65369808e-03	1.30912558e-04
1.59000000e+00	3.61778897e-03	1.29713490e-04
1.59500000e+00	3.63653887e-03	1.27966146e-04
1.60000000e+00	3.62357543e-03	1.27357425e-04
1.60500000e+00	3.62979785e-03	1.27679810e-04
1.61000000e+00	3.61778968e-03	1.26706064e-04
1.61500000e+00	3.60320252e-03	1.25011869e-04
1.62000000e+00	3.60246262e-03	1.25558428e-04
1.62500000e+00	3.58593823e-03	1.26382447e-04
1.63000000e+00	3.58452666e-03	1.24999829e-04
1.63500000e+00	3.56696199e-03	1.24352125e-04
1.64000000e+00	3.57072281e-03	1.24570337e-04
1.64500000e+00	3.54468755e-03	1.25018127e-04
1.65000000e+00	3.56763188e-03	1.24509638e-04
1.65500000e+00	3.56546991e-03	1.24246621e-04
1.66000000e+00	3.56323296e-03	1.24311088e-04
1.66500000e+00	3.52593003e-03	1.25059226e-04
1.67000000e+00	3.54339316e-03	1.23150578e-04
1.67500000e+00	3.54072673e-03	1.23387770e-04
1.68000000e+00	3.53060534e-03	1.23333786e-04
1.68500000e+00	3.50303283e-03	1.24380969e-04
1.69000000e+00	3.49346638e-03	1.21709679e-04
1.69500000e+00	3.50154387e-03	1.21773454e-04
1.70000000e+00	3.50015320e-03	1.23099636e-04
1.70500000e+00	3.48634376e-03	1.23192844e-04
1.71000000e+00	3.46887209e-03	1.20960611e-04
1.71500000e+00	3.46689657e-03	1.20899731e-04
1.72000000e+00	3.45155575e-03	1.21232713e-04
1.72500000e+00	3.43779283e-03	1.21556835e-04
1.73000000e+00	3.45587944e-03	1.20521954e-04
1.73500000e+00	3.41966977e-03	1.19581575e-04
1.74000000e+00	3.42277210e-03	1.19995851e-04
1.74500000e+00	3.40325807e-03	1.20674878e-04
1.75000000e+00	3.41493364e-03	1.18782583e-04
1.75500000e+00	3.41993528e-03	1.19811215e-04
1.76000000e+00	3.40313312e-03	1.19141893e-04
1.76500000e+00	3.39405477e-03	1.20319798e-04
1.77000000e+00	3.40556999e-03	1.18727930e-04
1.77500000e+00	3.37411186e-03	1.17939114e-04
1.78000000e+00	3.39197377e-03	1.18980343e-04
1.78500000e+00	3.36138896e-03	1.19093861e-04
1.79000000e+00	3.36035899e-03	1.17055891e-04
1.79500000e+00	3.34629322e-03	1.16967715e-04
1.80000000e+00	3.33343554e-03	1.17245286e-04
1.80500000e+00	3.31923537e-03	1.17499301e-04
1.81000000e+00	3.34132831e-03	1.16545650e-04
1.81500000e+00	3.32147232e-03	1.15841815e-04
1.82000000e+00	3.33590378e-03	1.17141293e-04
1.82500000e+00	3.29606742e-03	1.16485465e-04
1.83000000e+00	3.28706136e-03	1.14624179e-04
1.83500000e+00	3.27380095e-03	1.14448982e-04
1.84000000e+00	3.27343651e-03	1.15033503e-04
1.84500000e+00	3.28645920e-03	1.16098318e-04
1.85000000e+00	3.27200132e-03	1.14349661e-04
1.85500000e+00	3.26518044e-03	1.14143285e-04
1.86000000e+00	3.28899653e-03	1.15765151e-04
1.86500000e+00	3.23164004e-03	1.13982466e-04
1.87000000e+00	3.23916470e-03	1.13067696e-04
1.87500000e+00	3.23759840e-03	1.13237625e-04
1.88000000e+00	3.21778470e-03	1.13084500e-04
1.88500000e+00	3.21447019e-03	1.13750245e-04
1.89000000e+00	3.17744350e-03	1.10809230e-04
1.89500000e+00	3.21759628e-03	1.12848035e-04
1.90000000e+00	3.17107703e-03	1.11543820e-04
1.90500000e+00	3.14545001e-03	1.10686182e-04
1.91000000e+00	3.13305416e-03	1.09557732e-04
1.91500000e+00	3.13062688e-03	1.09479596e-04
1.92000000e+00	3.11195727e-03	1.09481676e-04
1.92500000e+00	3.11879581e-03	1.09848023e-04
1.93000000e+00	3.10093910e-03	1.08205826e-04
1.93500000e+00	3.07748456e-03	1.07754728e-04
1.94000000e+00	3.07675556e-03	1.08545270e-04
1.94500000e+00	3.04630813e-03	1.07194455e-04
1.95000000e+00	3.05362761e-03	1.06517114e-04
1.95500000e+00	3.04848497e-03	1.06843097e-04
1.96000000e+00	3.03573827e-03	1.06941261e-04
1.96500000e+00	3.03306257e-03	1.06925617e-04
1.97000000e+00	3.02206245e-03	1.05297123e-04
1.97500000e+00	3.00609120e-03	1.05396734e-04
1.98000000e+00	2.99348722e-03	1.05438357e-04
1.98500000e+00	3.00728692e-03	1.06125188e-04
1.99000000e+00	2.97716837e-03	1.03717942e-04
1.99500000e+00	2.97084157e-03	1.03946181e-04
2.00000000e+00	2.96535042e-03	1.04480404e-04
2.00500000e+00	2.99700529e-03	1.05806630e-04
2.01000000e+00	2.95508685e-03	1.14488412e-04
2.01500000e+00	2.92060993e-03	1.20289399e-04
2.02000000e+00	2.89855156e-03	1.27146966e-04
2.02500000e+00	2.89954327e-03	1.32178162e-04
2.03000000e+00	2.89890983e-03	1.40092729e-04
2.03500000e+00	2.85833068e-03	1.44068251e-04
2.04000000e+00	2.85594488e-03	1.50557892e-04
2.04500000e+00	2.83105779e-03	1.56854250e-04
2.05000000e+00	2.77976738e-03	1.61767681e-04
2.05500000e+00	2.85600295e-03	1.63069779e-04
2.06000000e+00	2.89989403e-03	1.44001246e-04
2.06500000e+00	2.86837656e-03	1.35952320e-04
2.07000000e+00	2.84975782e-03	1.27951671e-04
2.07500000e+00	2.82518278e-03	1.23925881e-04
2.08000000e+00	2.80878792e-03	1.23055794e-04
2.08500000e+00	2.81621015e-03	1.22299571e-04
2.09000000e+00	2.83043882e-03	1.19248517e-04
2.09500000e+00	2.81924947e-03	1.17578038e-04
2.10000000e+00	2.79944352e-03	1.15936682e-04
2.10500000e+00	2.79205392e-03	1.15293534e-04
2.11000000e+00	2.80243358e-03	1.11515977e-04
2.11500000e+00	2.76655955e-03	1.08944344e-04
2.12000000e+00	2.74466029e-03	1.07521667e-04
2.12500000e+00	2.72396342e-03	1.06385449e-04
2.13000000e+00	2.69397192e-03	1.00872506e-04
2.13500000e+00	2.69285471e-03	9.96763975e-05
2.14000000e+00	2.66538876e-03	9.77486365e-05
2.14500000e+00	2.67754288e-03	9.84922537e-05
2.15000000e+00	2.64346319e-03	9.39636473e-05
2.15500000e+00	2.62717823e-03	9.36263176e-05
2.16000000e+00	2.63486255e-03	9.34138705e-05
2.16500000e+00	2.60606602e-03	9.30257952e-05
2.17000000e+00	2.63177114e-03	9.16969569e-05
2.17500000e+00	2.60648161e-03	9.10087867e-05
2.18000000e+00	2.59260979e-03	9.09198663e-05
2.18500000e+00	2.57789736e-03	9.07069794e-05
2.19000000e+00	2.55984799e-03	8.97801722e-05
2.19500000e+00	2.54153679e-03	8.86985501e-05
2.20000000e+00	2.53677401e-03	8.87044300e-05
2.20500000e+00	2.54622865e-03	8.93817044e-05
2.21000000e+00	2.51267436e-03	8.86848085e-05
2.21500000e+00	2.52925998e-03	8.83795724e-05
2.22000000e+00	2.49152717e-03	8.67525985e-05
2.22500000e+00	2.47611674e-03	8.70150602e-05
2.23000000e+00	2.45048275e-03	8.65836894e-05
2.23500000e+00	2.46363385e-03	8.58713624e-05
2.24000000e+00	2.44412300e-03	8.52807819e-05
2.24500000e+00	2.41688276e-03	8.48832612e-05
2.25000000e+00	2.40294932e-03	8.51017398e-05
2.25500000e+00	2.39609769e-03	8.33377811e-05
2.26000000e+00	2.37472778e-03	8.29252090e-05
2.26500000e+00	2.35784882e-03	8.26114932e-05
2.27000000e+00	2.34585371e-03	8.33608257e-05
2.27500000e+00	2.34130056e-03	8.14752847e-05
2.28000000e+00	2.28702711e-03	7.96362057e-05
2.28500000e+00	2.28942286e-03	8.03266464e-05
2.29000000e+00	2.26336695e-03	7.97606720e-05
2.29500000e+00	2.28217992e-03	8.02059303e-05
2.30000000e+00	2.26907489e-03	7.90249215e-05
2.30500000e+00	2.24229230e-03	7.82102364e-05
2.31000000e+00	2.24309525e-03	7.86911633e-05
2.31500000e+00	2.23210822e-03	7.89373891e-05
2.32000000e+00	2.20913142e-03	7.65147221e-05
2.32500000e+00	2.17762822e-03	7.61169448e-05
2.33000000e+00	2.18395782e-03	7.64488642e-05
2.33500000e+00	2.17261842e-03	7.68667489e-05
2.34000000e+00	2.17182970e-03	7.55206743e-05
2.34500000e+00	2.15026215e-03	7.47635247e-05
2.35000000e+00	2.17141361e-03	7.57718367e-05
2.35500000e+00	2.13341245e-03	7.55187919e-05
2.36000000e+00	2.11526621e-03	7.37850357e-05
2.36500000e+00	2.10438898e-03	7.33905738e-05
2.37000000e+00	2.08226826e-03	7.26483616e-05
2.37500000e+00	2.06549995e-03	7.26978532e-05
2.38000000e+00	2.08786905e-03	7.38382112e-05
2.38500000e+00	2.05446609e-03	7.16493092e-05
2.39000000e+00	2.03965249e-03	7.13056554e-05
2.39500000e+00	2.04192859e-03	7.17869462e-05
2.40000000e+00	2.02974379e-03	7.23933124e-05
2.40500000e+00	2.01357876e-03	7.04266232e-05
2.41000000e+00	1.99933920e-03	7.01604445e-05
2.41500000e+00	1.99655338e-03	7.00890469e-05
2.42000000e+00	1.98242531e-03	7.05414363e-05
2.42500000e+00	1.98079079e-03	7.02717988e-05
2.43000000e+00	1.95591671e-03	6.87590546e-05
2.43500000e+00	1.95669818e-03	6.91016707e-05
2.44000000e+00	1.94259593e-03	6.87213680e-05
2.44500000e+00	1.94238872e-03	6.96759359e-05
2.45000000e+00	1.92214946e-03	6.76824200e-05
2.45500000e+00	1.90537115e-03	6.73150400e-05
2.46000000e+00	1.87788788e-03	6.66052930e-05
2.46500000e+00	1.86323378e-03	6.68637278e-05
2.47000000e+00	1.87450652e-03	6.67140380e-05
2.47500000e+00	1.86182662e-03	6.58794521e-05
2.48000000e+00	1.85499098e-03	6.62084779e-05
2.48500000e+00	1.85725636e-03	6.62501135e-05
2.49000000e+00	1.83745500e-03	6.65070126e-05
2.49500000e+00	1.83686364e-03	6.52018172e-05
2.50000000e+00	1.80707264e-03	6.42648464e-05
2.50500000e+00	1.80291986e-03	6.45208202e-05
2.51000000e+00	1.81033909e-03	6.52169862e-05
2.51500000e+00	1.79960069e-03	6.49710739e-05
2.52000000e+00	1.80110552e-03	6.44579537e-05
2.52500000e+00	1.79644929e-03	6.45019644e-05
2.53000000e+00	1.76360032e-03	6.39784980e-05
2.53500000e+00	1.76151503e-03	6.46816787e-05
2.54000000e+00	1.76293317e-03	6.36867054e-05
2.54500000e+00	1.75693209e-03	6.37471350e-05
2.55000000e+00	1.76441307e-03	6.42848070e-05
2.55500000e+00	1.72692472e-03	6.35350039e-05
2.56000000e+00	1.70570751e-03	6.31015315e-05
2.56500000e+00	1.72409274e-03	6.30949186e-05
2.57000000e+00	1.71404879e-03	6.30092839e-05
2.57500000e+00	1.70013830e-03	6.27001279e-05
2.58000000e+00	1.67979630e-03	6.30032315e-05
2.58500000e+00	1.69013875e-03	6.28706991e-05
2.59000000e+00	1.67047947e-03	6.19766367e-05
2.59500000e+00	1.67133371e-03	6.21290070e-05
2.60000000e+00	1.67423321e-03	6.27698160e-05
2.60500000e+00	1.66727350e-03	6.38922785e-05
2.61000000e+00	1.65626671e-03	7.23753139e-05
2.61500000e+00	1.63191606e-03	7.89800824e-05
2.62000000e+00	1.61184232e-03	8.60334420e-05
2.62500000e+00	1.54293224e-03	8.91457911e-05
2.63000000e+00	1.56129095e-03	9.96062976e-05
2.63500000e+00	1.65174524e-03	1.16386439e-04
2.64000000e+00	1.68894288e-03	1.30664889e-04
2.64500000e+00	1.64491529e-03	1.35979474e-04
2.65000000e+00	1.62999561e-03	1.42364543e-04
2.65500000e+00	1.65132010e-03	1.54761156e-04
2.66000000e+00	1.63653275e-03	1.64734457e-04
2.66500000e+00	1.63105561e-03	1.84237738e-04
2.67000000e+00	1.64486234e-03	2.01551314e-04
2.67500000e+00	1.63547982e-03	2.35985769e-04
2.68000000e+00	1.61942782e-03	2.70249197e-04
2.68500000e+00	1.52094238e-03	3.39569919e-04
2.69000000e+00	1.49375703e-03	5.37366094e-04
2.69500000e+00	0.00000000e+00	0.00000000e+00
2.70000000e+00	0.00000000e+00	0.00000000e+00
