% Filename : WDL7c_00013_00002.h5
% Date & Time : 30-Oct-2025 16:13:16
% X-ray Energy (keV) : 13.30001
% Exposure Time (s) : 0.500
% Photodiode Value : 139746.000
% I0 of Sample : 0
% I0 of Standard : 1
% 
% q(A^-1)   I(q)    I(q)_SE
8.40000000e-01	0.00000000e+00	0.00000000e+00
8.45000000e-01	2.83221779e-03	4.96491783e-04
8.50000000e-01	2.66229175e-03	2.47133451e-04
8.55000000e-01	2.66813853e-03	2.18283395e-04
8.60000000e-01	2.64301131e-03	1.86975422e-04
8.65000000e-01	2.67303632e-03	1.74101128e-04
8.70000000e-01	2.69691603e-03	1.67608241e-04
8.75000000e-01	2.67725360e-03	1.60134976e-04
8.80000000e-01	2.68192140e-03	1.55141894e-04
8.85000000e-01	2.63163815e-03	1.43681239e-04
8.90000000e-01	2.67426269e-03	1.42955537e-04
8.95000000e-01	2.67934027e-03	1.39290506e-04
9.00000000e-01	2.66404430e-03	1.37198301e-04
9.05000000e-01	2.71715564e-03	1.33890625e-04
9.10000000e-01	2.68634871e-03	1.29762050e-04
9.15000000e-01	2.71740814e-03	1.29342373e-04
9.20000000e-01	2.77011954e-03	1.31676024e-04
9.25000000e-01	2.73901297e-03	1.24536268e-04
9.30000000e-01	2.74263306e-03	1.23499334e-04
9.35000000e-01	2.76862460e-03	1.22286236e-04
9.40000000e-01	2.75811578e-03	1.22049126e-04
9.45000000e-01	2.75300150e-03	1.18789195e-04
9.50000000e-01	2.78290306e-03	1.18285660e-04
9.55000000e-01	2.78911068e-03	1.16446322e-04
9.60000000e-01	2.78136243e-03	1.16285765e-04
9.65000000e-01	2.78763957e-03	1.14592725e-04
9.70000000e-01	2.78733666e-03	1.12792972e-04
9.75000000e-01	2.78741528e-03	1.11509236e-04
9.80000000e-01	2.79308058e-03	1.10900589e-04
9.85000000e-01	2.79541170e-03	1.11034541e-04
9.90000000e-01	2.80120409e-03	1.07916612e-04
9.95000000e-01	2.79943542e-03	1.07289446e-04
1.00000000e+00	2.80667840e-03	1.06933209e-04
1.00500000e+00	2.79183675e-03	1.06481256e-04
1.01000000e+00	2.81549273e-03	1.05078890e-04
1.01500000e+00	2.82010028e-03	1.04283779e-04
1.02000000e+00	2.80140550e-03	1.03595180e-04
1.02500000e+00	2.79333991e-03	1.01946318e-04
1.03000000e+00	2.80447110e-03	1.02072402e-04
1.03500000e+00	2.79926525e-03	1.00411501e-04
1.04000000e+00	2.76513231e-03	9.85899162e-05
1.04500000e+00	2.79279080e-03	9.96042158e-05
1.05000000e+00	2.77058306e-03	9.81619310e-05
1.05500000e+00	2.75431218e-03	9.60804360e-05
1.06000000e+00	2.77628185e-03	9.66455886e-05
1.06500000e+00	2.80459087e-03	9.77191858e-05
1.07000000e+00	2.78589357e-03	9.69669349e-05
1.07500000e+00	2.77652405e-03	9.58055127e-05
1.08000000e+00	2.81830165e-03	9.67341940e-05
1.08500000e+00	2.81039466e-03	9.65613377e-05
1.09000000e+00	2.81433107e-03	9.72439593e-05
1.09500000e+00	2.80905626e-03	9.50652888e-05
1.10000000e+00	2.83731872e-03	9.67532180e-05
1.10500000e+00	2.83918728e-03	9.71428865e-05
1.11000000e+00	2.82766456e-03	9.67721406e-05
1.11500000e+00	2.85013848e-03	9.68061530e-05
1.12000000e+00	2.85377189e-03	9.72916004e-05
1.12500000e+00	2.86026029e-03	9.73212822e-05
1.13000000e+00	2.88646465e-03	9.94386211e-05
1.13500000e+00	2.86541429e-03	9.74432745e-05
1.14000000e+00	2.90953533e-03	9.88005073e-05
1.14500000e+00	2.91308938e-03	9.97052122e-05
1.15000000e+00	2.89445541e-03	9.95998226e-05
1.15500000e+00	2.89622289e-03	9.86058601e-05
1.16000000e+00	2.90108647e-03	9.90278785e-05
1.16500000e+00	2.90495989e-03	9.90915844e-05
1.17000000e+00	2.91034164e-03	1.00507020e-04
1.17500000e+00	2.93740963e-03	9.99981040e-05
1.18000000e+00	2.93674368e-03	1.00505354e-04
1.18500000e+00	2.93070528e-03	1.00094157e-04
1.19000000e+00	2.93322519e-03	1.01346344e-04
1.19500000e+00	2.94122827e-03	1.00385739e-04
1.20000000e+00	2.95748328e-03	1.01410971e-04
1.20500000e+00	2.95728207e-03	1.01260596e-04
1.21000000e+00	2.94898585e-03	1.02261314e-04
1.21500000e+00	2.97209020e-03	1.01425980e-04
1.22000000e+00	2.98289035e-03	1.01877928e-04
1.22500000e+00	2.98980031e-03	1.02535556e-04
1.23000000e+00	2.98118057e-03	1.03001847e-04
1.23500000e+00	2.97642631e-03	1.02195171e-04
1.24000000e+00	2.97960827e-03	1.01840196e-04
1.24500000e+00	2.99011706e-03	1.03011027e-04
1.25000000e+00	2.99282710e-03	1.03614666e-04
1.25500000e+00	2.99569425e-03	1.02539379e-04
1.26000000e+00	2.97593745e-03	1.02395538e-04
1.26500000e+00	3.01745741e-03	1.03412228e-04
1.27000000e+00	3.00495981e-03	1.04512499e-04
1.27500000e+00	3.00757526e-03	1.03648699e-04
1.28000000e+00	3.00945112e-03	1.03002259e-04
1.28500000e+00	3.00904599e-03	1.03576721e-04
1.29000000e+00	3.01472898e-03	1.04753938e-04
1.29500000e+00	2.99992389e-03	1.03116774e-04
1.30000000e+00	3.02955551e-03	1.03975152e-04
1.30500000e+00	3.00546058e-03	1.03547627e-04
1.31000000e+00	3.01698024e-03	1.05150907e-04
1.31500000e+00	3.00856593e-03	1.03612863e-04
1.32000000e+00	3.03021900e-03	1.04245821e-04
1.32500000e+00	2.99312006e-03	1.03193296e-04
1.33000000e+00	3.01573530e-03	1.05250445e-04
1.33500000e+00	3.03401995e-03	1.04406267e-04
1.34000000e+00	3.03521012e-03	1.04642635e-04
1.34500000e+00	3.02178060e-03	1.04554379e-04
1.35000000e+00	3.00688444e-03	1.05002446e-04
1.35500000e+00	3.01076426e-03	1.03655112e-04
1.36000000e+00	3.01146048e-03	1.03599371e-04
1.36500000e+00	3.00571337e-03	1.03699722e-04
1.37000000e+00	2.99418116e-03	1.04909365e-04
1.37500000e+00	3.00497654e-03	1.03578817e-04
1.38000000e+00	3.02520073e-03	1.04511730e-04
1.38500000e+00	2.99068874e-03	1.03951633e-04
1.39000000e+00	3.00872340e-03	1.05232108e-04
1.39500000e+00	3.01768872e-03	1.03922125e-04
1.40000000e+00	3.04166134e-03	1.07994717e-04
1.40500000e+00	3.00122144e-03	1.14590125e-04
1.41000000e+00	2.96922649e-03	1.18727011e-04
1.41500000e+00	2.95298017e-03	1.22415382e-04
1.42000000e+00	2.95035108e-03	1.27182266e-04
1.42500000e+00	2.92855072e-03	1.29904067e-04
1.43000000e+00	2.91448004e-03	1.34328951e-04
1.43500000e+00	2.93776252e-03	1.39398444e-04
1.44000000e+00	2.92101416e-03	1.44251749e-04
1.44500000e+00	2.86908900e-03	1.45241297e-04
1.45000000e+00	2.96998846e-03	1.45481655e-04
1.45500000e+00	2.97383831e-03	1.30690649e-04
1.46000000e+00	2.97454478e-03	1.27697492e-04
1.46500000e+00	2.94821183e-03	1.24351377e-04
1.47000000e+00	2.95620109e-03	1.24408846e-04
1.47500000e+00	2.96531451e-03	1.21157154e-04
1.48000000e+00	2.93148726e-03	1.18534002e-04
1.48500000e+00	2.97130913e-03	1.20298385e-04
1.49000000e+00	2.95147128e-03	1.19697969e-04
1.49500000e+00	2.95067891e-03	1.17047678e-04
1.50000000e+00	2.96270441e-03	1.17150853e-04
1.50500000e+00	3.00132134e-03	1.19220022e-04
1.51000000e+00	2.98913433e-03	1.19013481e-04
1.51500000e+00	2.98166831e-03	1.16762232e-04
1.52000000e+00	3.03960313e-03	1.18714231e-04
1.52500000e+00	2.99953431e-03	1.16958871e-04
1.53000000e+00	3.00272371e-03	1.17817113e-04
1.53500000e+00	2.97229462e-03	1.13237751e-04
1.54000000e+00	2.97789276e-03	1.13367661e-04
1.54500000e+00	2.96688981e-03	1.12576338e-04
1.55000000e+00	2.95955947e-03	1.12103259e-04
1.55500000e+00	2.93578959e-03	1.08648828e-04
1.56000000e+00	2.93512768e-03	1.08849138e-04
1.56500000e+00	2.92006707e-03	1.07742008e-04
1.57000000e+00	2.88020459e-03	1.05566418e-04
1.57500000e+00	2.89855427e-03	1.04313079e-04
1.58000000e+00	2.88706430e-03	1.03714838e-04
1.58500000e+00	2.87075024e-03	1.03129620e-04
1.59000000e+00	2.84910705e-03	1.02393729e-04
1.59500000e+00	2.87512096e-03	1.01288274e-04
1.60000000e+00	2.86438847e-03	1.00896165e-04
1.60500000e+00	2.84234443e-03	1.00136603e-04
1.61000000e+00	2.85068624e-03	1.00044146e-04
1.61500000e+00	2.83873382e-03	9.87072878e-05
1.62000000e+00	2.81579512e-03	9.83475452e-05
1.62500000e+00	2.83362764e-03	1.00054682e-04
1.63000000e+00	2.82487824e-03	9.86534090e-05
1.63500000e+00	2.81777989e-03	9.84205816e-05
1.64000000e+00	2.81137835e-03	9.83141010e-05
1.64500000e+00	2.82628740e-03	9.99034541e-05
1.65000000e+00	2.81366356e-03	9.83898231e-05
1.65500000e+00	2.79617585e-03	9.76200504e-05
1.66000000e+00	2.78141263e-03	9.73003732e-05
1.66500000e+00	2.79362989e-03	9.92674445e-05
1.67000000e+00	2.75416019e-03	9.59571014e-05
1.67500000e+00	2.76904536e-03	9.66550237e-05
1.68000000e+00	2.76107937e-03	9.66156042e-05
1.68500000e+00	2.75781746e-03	9.81801780e-05
1.69000000e+00	2.74830218e-03	9.59087969e-05
1.69500000e+00	2.73785252e-03	9.53563040e-05
1.70000000e+00	2.73153171e-03	9.62249468e-05
1.70500000e+00	2.71559733e-03	9.61211246e-05
1.71000000e+00	2.72996842e-03	9.53642645e-05
1.71500000e+00	2.70911816e-03	9.45802379e-05
1.72000000e+00	2.71214009e-03	9.55102486e-05
1.72500000e+00	2.72242759e-03	9.63780418e-05
1.73000000e+00	2.70728779e-03	9.47337681e-05
1.73500000e+00	2.73800187e-03	9.59816259e-05
1.74000000e+00	2.69484869e-03	9.46402647e-05
1.74500000e+00	2.66753405e-03	9.47951550e-05
1.75000000e+00	2.69984545e-03	9.40597139e-05
1.75500000e+00	2.66886094e-03	9.35808380e-05
1.76000000e+00	2.67890600e-03	9.39080186e-05
1.76500000e+00	2.67029061e-03	9.48884117e-05
1.77000000e+00	2.63536152e-03	9.20708281e-05
1.77500000e+00	2.64086312e-03	9.25550131e-05
1.78000000e+00	2.64507937e-03	9.29250424e-05
1.78500000e+00	2.62234054e-03	9.31083678e-05
1.79000000e+00	2.62349866e-03	9.16196295e-05
1.79500000e+00	2.63481079e-03	9.22310749e-05
1.80000000e+00	2.60813642e-03	9.18509492e-05
1.80500000e+00	2.58888915e-03	9.17895964e-05
1.81000000e+00	2.57739501e-03	8.99938098e-05
1.81500000e+00	2.60169486e-03	9.09540495e-05
1.82000000e+00	2.58065180e-03	9.07996334e-05
1.82500000e+00	2.58142606e-03	9.14558888e-05
1.83000000e+00	2.56753822e-03	8.97510881e-05
1.83500000e+00	2.57820603e-03	9.03286968e-05
1.84000000e+00	2.57061507e-03	9.05621563e-05
1.84500000e+00	2.53624710e-03	8.97558039e-05
1.85000000e+00	2.54582455e-03	8.90824701e-05
1.85500000e+00	2.51107863e-03	8.79712705e-05
1.86000000e+00	2.53767985e-03	8.94471590e-05
1.86500000e+00	2.51926376e-03	8.90220831e-05
1.87000000e+00	2.51762663e-03	8.79998718e-05
1.87500000e+00	2.50371342e-03	8.78248987e-05
1.88000000e+00	2.48786980e-03	8.76480404e-05
1.88500000e+00	2.50895279e-03	8.88705955e-05
1.89000000e+00	2.47562107e-03	8.65139155e-05
1.89500000e+00	2.47017089e-03	8.68130844e-05
1.90000000e+00	2.46714516e-03	8.69733290e-05
1.90500000e+00	2.45341025e-03	8.64970191e-05
1.91000000e+00	2.44201916e-03	8.55293634e-05
1.91500000e+00	2.42510367e-03	8.49513162e-05
1.92000000e+00	2.42394698e-03	8.54693893e-05
1.92500000e+00	2.44170429e-03	8.61858255e-05
1.93000000e+00	2.41323756e-03	8.44041346e-05
1.93500000e+00	2.40570127e-03	8.44319557e-05
1.94000000e+00	2.41305453e-03	8.52902999e-05
1.94500000e+00	2.37720313e-03	8.38549193e-05
1.95000000e+00	2.38408108e-03	8.32731725e-05
1.95500000e+00	2.37913989e-03	8.34707362e-05
1.96000000e+00	2.35996102e-03	8.32988923e-05
1.96500000e+00	2.36780544e-03	8.36180391e-05
1.97000000e+00	2.37640371e-03	8.29138748e-05
1.97500000e+00	2.33427303e-03	8.20290999e-05
1.98000000e+00	2.34142615e-03	8.25565362e-05
1.98500000e+00	2.33852450e-03	8.26835550e-05
1.99000000e+00	2.32853279e-03	8.12419954e-05
1.99500000e+00	2.32293429e-03	8.14658284e-05
2.00000000e+00	2.34861137e-03	8.30173554e-05
2.00500000e+00	2.34503710e-03	8.30090832e-05
2.01000000e+00	2.30946390e-03	8.97173644e-05
2.01500000e+00	2.28535037e-03	9.42563474e-05
2.02000000e+00	2.26079604e-03	9.94083117e-05
2.02500000e+00	2.24434168e-03	1.02572742e-04
2.03000000e+00	2.22874463e-03	1.07855863e-04
2.03500000e+00	2.23204124e-03	1.12802250e-04
2.04000000e+00	2.20222892e-03	1.16438225e-04
2.04500000e+00	2.19750155e-03	1.22254124e-04
2.05000000e+00	2.18111665e-03	1.27308314e-04
2.05500000e+00	2.20893866e-03	1.26395757e-04
2.06000000e+00	2.22681784e-03	1.10835762e-04
2.06500000e+00	2.23678924e-03	1.06405920e-04
2.07000000e+00	2.22600434e-03	1.00152935e-04
2.07500000e+00	2.22168610e-03	9.78855073e-05
2.08000000e+00	2.20757003e-03	9.69623349e-05
2.08500000e+00	2.20525892e-03	9.59689102e-05
2.09000000e+00	2.19378825e-03	9.25982449e-05
2.09500000e+00	2.18075808e-03	9.11370770e-05
2.10000000e+00	2.20010463e-03	9.12486235e-05
2.10500000e+00	2.17867162e-03	9.00933234e-05
2.11000000e+00	2.16541032e-03	8.64023647e-05
2.11500000e+00	2.15210292e-03	8.49262916e-05
2.12000000e+00	2.13515458e-03	8.38216545e-05
2.12500000e+00	2.13133810e-03	8.33860132e-05
2.13000000e+00	2.11241332e-03	7.93562761e-05
2.13500000e+00	2.09974755e-03	7.79932719e-05
2.14000000e+00	2.09035899e-03	7.69185877e-05
2.14500000e+00	2.07189987e-03	7.63160884e-05
2.15000000e+00	2.06537706e-03	7.36670031e-05
2.15500000e+00	2.05952159e-03	7.35365033e-05
2.16000000e+00	2.03654364e-03	7.24040149e-05
2.16500000e+00	2.01413635e-03	7.21463680e-05
2.17000000e+00	2.01662819e-03	7.04803764e-05
2.17500000e+00	2.01344059e-03	7.05073266e-05
2.18000000e+00	2.00519734e-03	7.04634348e-05
2.18500000e+00	1.98338841e-03	6.99975506e-05
2.19000000e+00	1.96066016e-03	6.90301986e-05
2.19500000e+00	1.98271955e-03	6.94506988e-05
2.20000000e+00	1.95855944e-03	6.87027517e-05
2.20500000e+00	1.95479627e-03	6.87723149e-05
2.21000000e+00	1.93597839e-03	6.84973529e-05
2.21500000e+00	1.92522379e-03	6.73146110e-05
2.22000000e+00	1.91165820e-03	6.68462061e-05
2.22500000e+00	1.92148001e-03	6.77617744e-05
2.23000000e+00	1.90049982e-03	6.73605137e-05
2.23500000e+00	1.89183887e-03	6.61296199e-05
2.24000000e+00	1.87435616e-03	6.55395505e-05
2.24500000e+00	1.85870844e-03	6.55043504e-05
2.25000000e+00	1.85107490e-03	6.58150995e-05
2.25500000e+00	1.84027508e-03	6.41625409e-05
2.26000000e+00	1.82204320e-03	6.37546023e-05
2.26500000e+00	1.81748555e-03	6.38285530e-05
2.27000000e+00	1.80094853e-03	6.41756657e-05
2.27500000e+00	1.80017305e-03	6.28316472e-05
2.28000000e+00	1.78994054e-03	6.25183835e-05
2.28500000e+00	1.76921309e-03	6.22867424e-05
2.29000000e+00	1.76744225e-03	6.24853416e-05
2.29500000e+00	1.75115393e-03	6.18056815e-05
2.30000000e+00	1.71997665e-03	6.00768102e-05
2.30500000e+00	1.72958764e-03	6.05842406e-05
2.31000000e+00	1.70525990e-03	6.00390803e-05
2.31500000e+00	1.70152549e-03	6.03818647e-05
2.32000000e+00	1.68250992e-03	5.84722170e-05
2.32500000e+00	1.68037806e-03	5.89182432e-05
2.33000000e+00	1.66741288e-03	5.85071415e-05
2.33500000e+00	1.64712190e-03	5.84465785e-05
2.34000000e+00	1.64311038e-03	5.74155719e-05
2.34500000e+00	1.63053459e-03	5.69076828e-05
2.35000000e+00	1.61719482e-03	5.66220069e-05
2.35500000e+00	1.61690199e-03	5.73950442e-05
2.36000000e+00	1.60881467e-03	5.63288142e-05
2.36500000e+00	1.60470497e-03	5.61552956e-05
2.37000000e+00	1.58905164e-03	5.55689509e-05
2.37500000e+00	1.56913213e-03	5.54017634e-05
2.38000000e+00	1.56419644e-03	5.55121309e-05
2.38500000e+00	1.57072504e-03	5.48752057e-05
2.39000000e+00	1.53366920e-03	5.37450868e-05
2.39500000e+00	1.53995253e-03	5.43226080e-05
2.40000000e+00	1.53189687e-03	5.47744596e-05
2.40500000e+00	1.52425650e-03	5.34838685e-05
2.41000000e+00	1.53113054e-03	5.39007608e-05
2.41500000e+00	1.50442190e-03	5.29623137e-05
2.42000000e+00	1.48633460e-03	5.30220164e-05
2.42500000e+00	1.49703681e-03	5.32669350e-05
2.43000000e+00	1.46495305e-03	5.15081397e-05
2.43500000e+00	1.46894859e-03	5.19472409e-05
2.44000000e+00	1.45742832e-03	5.16524927e-05
2.44500000e+00	1.44900930e-03	5.20787245e-05
2.45000000e+00	1.43757604e-03	5.07126020e-05
2.45500000e+00	1.43656488e-03	5.09042378e-05
2.46000000e+00	1.43425930e-03	5.09500897e-05
2.46500000e+00	1.40486712e-03	5.05253608e-05
2.47000000e+00	1.40745845e-03	5.02172095e-05
2.47500000e+00	1.40083749e-03	4.96216204e-05
2.48000000e+00	1.38009262e-03	4.93437992e-05
2.48500000e+00	1.36419722e-03	4.87571726e-05
2.49000000e+00	1.37098651e-03	4.96689781e-05
2.49500000e+00	1.36494761e-03	4.85002787e-05
2.50000000e+00	1.37104111e-03	4.88078369e-05
2.50500000e+00	1.35263819e-03	4.84073236e-05
2.51000000e+00	1.35977501e-03	4.90791276e-05
2.51500000e+00	1.34285523e-03	4.85259656e-05
2.52000000e+00	1.32877648e-03	4.75684895e-05
2.52500000e+00	1.32830635e-03	4.78015646e-05
2.53000000e+00	1.31285914e-03	4.76754438e-05
2.53500000e+00	1.32507554e-03	4.87260444e-05
2.54000000e+00	1.31301097e-03	4.74196283e-05
2.54500000e+00	1.29289278e-03	4.69784226e-05
2.55000000e+00	1.28594938e-03	4.68768849e-05
2.55500000e+00	1.28421982e-03	4.72310549e-05
2.56000000e+00	1.27659366e-03	4.71672228e-05
2.56500000e+00	1.26874631e-03	4.64844810e-05
2.57000000e+00	1.26328156e-03	4.65158178e-05
2.57500000e+00	1.26107449e-03	4.65008627e-05
2.58000000e+00	1.24635732e-03	4.67288930e-05
2.58500000e+00	1.25294221e-03	4.67032518e-05
2.59000000e+00	1.24381174e-03	4.60879935e-05
2.59500000e+00	1.22314782e-03	4.55762827e-05
2.60000000e+00	1.21665143e-03	4.56444750e-05
2.60500000e+00	1.22756778e-03	4.70313023e-05
2.61000000e+00	1.24464051e-03	5.43523096e-05
2.61500000e+00	1.21006902e-03	5.85514990e-05
2.62000000e+00	1.19929605e-03	6.38008298e-05
2.62500000e+00	1.17992417e-03	6.78871720e-05
2.63000000e+00	1.17439045e-03	7.46195509e-05
2.63500000e+00	1.19383640e-03	8.42686583e-05
2.64000000e+00	1.20216072e-03	9.34479799e-05
2.64500000e+00	1.17378658e-03	9.75958054e-05
2.65000000e+00	1.17625970e-03	1.03281427e-04
2.65500000e+00	1.19483562e-03	1.12676546e-04
2.66000000e+00	1.15144714e-03	1.16662680e-04
2.66500000e+00	1.13848614e-03	1.29915221e-04
2.67000000e+00	1.15119294e-03	1.42363374e-04
2.67500000e+00	1.13602481e-03	1.63987489e-04
2.68000000e+00	1.12517043e-03	1.89062649e-04
2.68500000e+00	1.13401854e-03	2.49080680e-04
2.69000000e+00	1.15106087e-03	4.11762484e-04
2.69500000e+00	0.00000000e+00	0.00000000e+00
2.70000000e+00	0.00000000e+00	0.00000000e+00
