% Filename : WDL7_00012_00013.h5
% Date & Time : 30-Oct-2025 14:46:50
% X-ray Energy (keV) : 13.30001
% Exposure Time (s) : 0.500
% Photodiode Value : 135994.000
% I0 of Sample : 0
% I0 of Standard : 1
% 
% q(A^-1)   I(q)    I(q)_SE
8.40000000e-01	0.00000000e+00	0.00000000e+00
8.45000000e-01	3.01819603e-03	5.31091549e-04
8.50000000e-01	2.64843335e-03	2.45874540e-04
8.55000000e-01	2.57491540e-03	2.10562512e-04
8.60000000e-01	2.58675667e-03	1.82958687e-04
8.65000000e-01	2.62321823e-03	1.70967263e-04
8.70000000e-01	2.58749760e-03	1.60870604e-04
8.75000000e-01	2.62124828e-03	1.56877754e-04
8.80000000e-01	2.60874513e-03	1.50713883e-04
8.85000000e-01	2.63605177e-03	1.44266502e-04
8.90000000e-01	2.62754635e-03	1.40562996e-04
8.95000000e-01	2.64623329e-03	1.37598375e-04
9.00000000e-01	2.66340056e-03	1.37338882e-04
9.05000000e-01	2.65359774e-03	1.30721949e-04
9.10000000e-01	2.66012054e-03	1.28712106e-04
9.15000000e-01	2.67836888e-03	1.27488973e-04
9.20000000e-01	2.68663275e-03	1.27679424e-04
9.25000000e-01	2.68424660e-03	1.22028928e-04
9.30000000e-01	2.70441217e-03	1.21739095e-04
9.35000000e-01	2.69873415e-03	1.19213113e-04
9.40000000e-01	2.72326821e-03	1.20621639e-04
9.45000000e-01	2.68423042e-03	1.15906639e-04
9.50000000e-01	2.73246382e-03	1.16255015e-04
9.55000000e-01	2.72192573e-03	1.13733421e-04
9.60000000e-01	2.73542445e-03	1.14440670e-04
9.65000000e-01	2.73401050e-03	1.12408661e-04
9.70000000e-01	2.72977816e-03	1.10391190e-04
9.75000000e-01	2.72638133e-03	1.09001635e-04
9.80000000e-01	2.74686880e-03	1.08980870e-04
9.85000000e-01	2.74502764e-03	1.08954042e-04
9.90000000e-01	2.76823042e-03	1.06595248e-04
9.95000000e-01	2.75506109e-03	1.05664234e-04
1.00000000e+00	2.78005371e-03	1.06022282e-04
1.00500000e+00	2.74714821e-03	1.04836086e-04
1.01000000e+00	2.74123852e-03	1.02448957e-04
1.01500000e+00	2.74350319e-03	1.01477558e-04
1.02000000e+00	2.74280893e-03	1.01451828e-04
1.02500000e+00	2.75650023e-03	1.00639669e-04
1.03000000e+00	2.74935753e-03	1.00051732e-04
1.03500000e+00	2.75175660e-03	9.87711315e-05
1.04000000e+00	2.73592185e-03	9.75880296e-05
1.04500000e+00	2.72625118e-03	9.73360890e-05
1.05000000e+00	2.72624462e-03	9.67069811e-05
1.05500000e+00	2.71426976e-03	9.47289013e-05
1.06000000e+00	2.72937328e-03	9.51170476e-05
1.06500000e+00	2.72374326e-03	9.48653337e-05
1.07000000e+00	2.71514585e-03	9.45969577e-05
1.07500000e+00	2.74101320e-03	9.48293269e-05
1.08000000e+00	2.73591789e-03	9.40324083e-05
1.08500000e+00	2.75364993e-03	9.47135102e-05
1.09000000e+00	2.77848923e-03	9.61435655e-05
1.09500000e+00	2.75016172e-03	9.33334223e-05
1.10000000e+00	2.75816591e-03	9.40917496e-05
1.10500000e+00	2.77242303e-03	9.49358178e-05
1.11000000e+00	2.76410180e-03	9.47296691e-05
1.11500000e+00	2.78487782e-03	9.47373695e-05
1.12000000e+00	2.80304571e-03	9.56882927e-05
1.12500000e+00	2.79048461e-03	9.49510709e-05
1.13000000e+00	2.81741410e-03	9.71291126e-05
1.13500000e+00	2.83812555e-03	9.65459530e-05
1.14000000e+00	2.80177036e-03	9.51257429e-05
1.14500000e+00	2.84108206e-03	9.72245066e-05
1.15000000e+00	2.83952850e-03	9.77505261e-05
1.15500000e+00	2.84159605e-03	9.67446711e-05
1.16000000e+00	2.86083070e-03	9.77259497e-05
1.16500000e+00	2.86826659e-03	9.79150650e-05
1.17000000e+00	2.86145756e-03	9.89819521e-05
1.17500000e+00	2.86666454e-03	9.76997366e-05
1.18000000e+00	2.87890345e-03	9.84006448e-05
1.18500000e+00	2.89562964e-03	9.89966235e-05
1.19000000e+00	2.87701479e-03	9.92294149e-05
1.19500000e+00	2.88107166e-03	9.83076329e-05
1.20000000e+00	2.90247836e-03	9.96123446e-05
1.20500000e+00	2.90010618e-03	9.93843119e-05
1.21000000e+00	2.89708268e-03	1.00468727e-04
1.21500000e+00	2.90223768e-03	9.90362334e-05
1.22000000e+00	2.90916561e-03	9.94484064e-05
1.22500000e+00	2.91321083e-03	9.99963299e-05
1.23000000e+00	2.90416527e-03	1.00416494e-04
1.23500000e+00	2.92400243e-03	1.00470185e-04
1.24000000e+00	2.93125518e-03	1.00143434e-04
1.24500000e+00	2.92952846e-03	1.00916495e-04
1.25000000e+00	2.91795914e-03	1.01083902e-04
1.25500000e+00	2.89501473e-03	9.91106115e-05
1.26000000e+00	2.90922838e-03	1.00126412e-04
1.26500000e+00	2.93485835e-03	1.00714008e-04
1.27000000e+00	2.93795283e-03	1.02229872e-04
1.27500000e+00	2.94878856e-03	1.01675574e-04
1.28000000e+00	2.94294602e-03	1.00819819e-04
1.28500000e+00	2.95024136e-03	1.01634254e-04
1.29000000e+00	2.94176672e-03	1.02253192e-04
1.29500000e+00	2.93743982e-03	1.00964807e-04
1.30000000e+00	2.93269254e-03	1.00635434e-04
1.30500000e+00	2.92576736e-03	1.00871441e-04
1.31000000e+00	2.92978894e-03	1.02177924e-04
1.31500000e+00	2.94908271e-03	1.01581981e-04
1.32000000e+00	2.95983993e-03	1.01825600e-04
1.32500000e+00	2.94330580e-03	1.01586606e-04
1.33000000e+00	2.92166796e-03	1.02000642e-04
1.33500000e+00	2.93196771e-03	1.00960368e-04
1.34000000e+00	2.94135843e-03	1.01401336e-04
1.34500000e+00	2.92796242e-03	1.01354182e-04
1.35000000e+00	2.93561890e-03	1.02524736e-04
1.35500000e+00	2.92593002e-03	1.00757342e-04
1.36000000e+00	2.91642451e-03	1.00350071e-04
1.36500000e+00	2.93270257e-03	1.01263011e-04
1.37000000e+00	2.91878700e-03	1.02286726e-04
1.37500000e+00	2.92289114e-03	1.00836976e-04
1.38000000e+00	2.94612829e-03	1.01865311e-04
1.38500000e+00	2.91603323e-03	1.01446563e-04
1.39000000e+00	2.94573786e-03	1.03015081e-04
1.39500000e+00	2.91834683e-03	1.00594002e-04
1.40000000e+00	2.94270097e-03	1.04521966e-04
1.40500000e+00	2.89260280e-03	1.10530948e-04
1.41000000e+00	2.88118657e-03	1.15382194e-04
1.41500000e+00	2.87310739e-03	1.19130912e-04
1.42000000e+00	2.84295562e-03	1.22797200e-04
1.42500000e+00	2.82782926e-03	1.25537965e-04
1.43000000e+00	2.81376837e-03	1.29621497e-04
1.43500000e+00	2.81733171e-03	1.33928281e-04
1.44000000e+00	2.84281793e-03	1.40390509e-04
1.44500000e+00	2.82006488e-03	1.42996660e-04
1.45000000e+00	2.89633143e-03	1.42109528e-04
1.45500000e+00	2.88537099e-03	1.26906553e-04
1.46000000e+00	2.87599468e-03	1.23531634e-04
1.46500000e+00	2.87752355e-03	1.21478823e-04
1.47000000e+00	2.87953248e-03	1.21356552e-04
1.47500000e+00	2.88581481e-03	1.18154305e-04
1.48000000e+00	2.89239751e-03	1.17042497e-04
1.48500000e+00	2.85787426e-03	1.15595732e-04
1.49000000e+00	2.86891144e-03	1.16409086e-04
1.49500000e+00	2.86316958e-03	1.13559678e-04
1.50000000e+00	2.87275994e-03	1.13601812e-04
1.50500000e+00	2.89259100e-03	1.14958692e-04
1.51000000e+00	2.89284280e-03	1.15242245e-04
1.51500000e+00	2.88622375e-03	1.13139990e-04
1.52000000e+00	2.87632536e-03	1.12259339e-04
1.52500000e+00	2.90540273e-03	1.13337257e-04
1.53000000e+00	2.92223015e-03	1.14657543e-04
1.53500000e+00	2.89955440e-03	1.10564088e-04
1.54000000e+00	2.89084407e-03	1.10097634e-04
1.54500000e+00	2.87379631e-03	1.09158258e-04
1.55000000e+00	2.88794656e-03	1.09369376e-04
1.55500000e+00	2.85384221e-03	1.05623360e-04
1.56000000e+00	2.84693878e-03	1.05639720e-04
1.56500000e+00	2.82374522e-03	1.04199524e-04
1.57000000e+00	2.82589625e-03	1.03596221e-04
1.57500000e+00	2.80102978e-03	1.00785030e-04
1.58000000e+00	2.78064425e-03	9.99305071e-05
1.58500000e+00	2.78842914e-03	1.00192948e-04
1.59000000e+00	2.77809263e-03	9.98298387e-05
1.59500000e+00	2.79042727e-03	9.83505504e-05
1.60000000e+00	2.75624339e-03	9.70871600e-05
1.60500000e+00	2.76603322e-03	9.74986684e-05
1.61000000e+00	2.74902761e-03	9.65581613e-05
1.61500000e+00	2.74362434e-03	9.54427781e-05
1.62000000e+00	2.73485720e-03	9.55653139e-05
1.62500000e+00	2.74633751e-03	9.70079502e-05
1.63000000e+00	2.73437414e-03	9.56208933e-05
1.63500000e+00	2.71407796e-03	9.48730220e-05
1.64000000e+00	2.72041653e-03	9.51249744e-05
1.64500000e+00	2.71107477e-03	9.58539666e-05
1.65000000e+00	2.70817061e-03	9.48350929e-05
1.65500000e+00	2.71603738e-03	9.49300722e-05
1.66000000e+00	2.69522995e-03	9.43279743e-05
1.66500000e+00	2.67034678e-03	9.49878863e-05
1.67000000e+00	2.69057936e-03	9.37043448e-05
1.67500000e+00	2.69563143e-03	9.41481815e-05
1.68000000e+00	2.67711825e-03	9.37119698e-05
1.68500000e+00	2.65871219e-03	9.47095781e-05
1.69000000e+00	2.66856787e-03	9.32409999e-05
1.69500000e+00	2.64817702e-03	9.23257040e-05
1.70000000e+00	2.63986252e-03	9.31352845e-05
1.70500000e+00	2.66917326e-03	9.45674521e-05
1.71000000e+00	2.63259498e-03	9.20102879e-05
1.71500000e+00	2.62826706e-03	9.17856309e-05
1.72000000e+00	2.63736323e-03	9.28370653e-05
1.72500000e+00	2.62760120e-03	9.30352730e-05
1.73000000e+00	2.61647203e-03	9.14278339e-05
1.73500000e+00	2.61908112e-03	9.17847013e-05
1.74000000e+00	2.60538634e-03	9.14944822e-05
1.74500000e+00	2.60827366e-03	9.27628265e-05
1.75000000e+00	2.58421216e-03	9.01541311e-05
1.75500000e+00	2.58913347e-03	9.08963364e-05
1.76000000e+00	2.58507549e-03	9.06706700e-05
1.76500000e+00	2.57570151e-03	9.15679309e-05
1.77000000e+00	2.57328752e-03	8.98769120e-05
1.77500000e+00	2.54654042e-03	8.92543719e-05
1.78000000e+00	2.54307186e-03	8.94099219e-05
1.78500000e+00	2.52944448e-03	8.98729744e-05
1.79000000e+00	2.52758761e-03	8.82700974e-05
1.79500000e+00	2.53730760e-03	8.88602885e-05
1.80000000e+00	2.51453198e-03	8.85850678e-05
1.80500000e+00	2.51906096e-03	8.93421868e-05
1.81000000e+00	2.48652919e-03	8.68583425e-05
1.81500000e+00	2.51280060e-03	8.78097426e-05
1.82000000e+00	2.48394017e-03	8.74295476e-05
1.82500000e+00	2.47253806e-03	8.76075504e-05
1.83000000e+00	2.50367006e-03	8.76177497e-05
1.83500000e+00	2.49180690e-03	8.72881183e-05
1.84000000e+00	2.46717499e-03	8.69024910e-05
1.84500000e+00	2.46960376e-03	8.74994669e-05
1.85000000e+00	2.44117313e-03	8.54236222e-05
1.85500000e+00	2.46833871e-03	8.64725128e-05
1.86000000e+00	2.45753465e-03	8.66704573e-05
1.86500000e+00	2.43980794e-03	8.63081835e-05
1.87000000e+00	2.45129017e-03	8.57349630e-05
1.87500000e+00	2.43308053e-03	8.54084387e-05
1.88000000e+00	2.40002824e-03	8.45789881e-05
1.88500000e+00	2.37694070e-03	8.43213962e-05
1.89000000e+00	2.38940742e-03	8.35761909e-05
1.89500000e+00	2.38547064e-03	8.38629705e-05
1.90000000e+00	2.39735295e-03	8.45064655e-05
1.90500000e+00	2.39053485e-03	8.42755308e-05
1.91000000e+00	2.37862792e-03	8.33794541e-05
1.91500000e+00	2.35359593e-03	8.26085716e-05
1.92000000e+00	2.36080680e-03	8.31907172e-05
1.92500000e+00	2.36246614e-03	8.34291076e-05
1.93000000e+00	2.35935608e-03	8.26584699e-05
1.93500000e+00	2.33092380e-03	8.18490689e-05
1.94000000e+00	2.31549223e-03	8.18963235e-05
1.94500000e+00	2.30995001e-03	8.15102589e-05
1.95000000e+00	2.31762378e-03	8.09219141e-05
1.95500000e+00	2.30139231e-03	8.07979461e-05
1.96000000e+00	2.27273232e-03	8.03409790e-05
1.96500000e+00	2.29951641e-03	8.12798627e-05
1.97000000e+00	2.29469674e-03	8.01888173e-05
1.97500000e+00	2.29214330e-03	8.05611901e-05
1.98000000e+00	2.27819690e-03	8.04322370e-05
1.98500000e+00	2.25930266e-03	7.98918481e-05
1.99000000e+00	2.24686989e-03	7.84620671e-05
1.99500000e+00	2.25858146e-03	7.92298332e-05
2.00000000e+00	2.22910155e-03	7.88130357e-05
2.00500000e+00	2.25882009e-03	8.00254528e-05
2.01000000e+00	2.22842634e-03	8.66068980e-05
2.01500000e+00	2.21668359e-03	9.13716410e-05
2.02000000e+00	2.21773367e-03	9.77338693e-05
2.02500000e+00	2.17516796e-03	9.94076501e-05
2.03000000e+00	2.16570146e-03	1.04895441e-04
2.03500000e+00	2.14412888e-03	1.08625902e-04
2.04000000e+00	2.12734349e-03	1.12480034e-04
2.04500000e+00	2.14569672e-03	1.19395819e-04
2.05000000e+00	2.06705518e-03	1.20610313e-04
2.05500000e+00	2.12469522e-03	1.21537811e-04
2.06000000e+00	2.17623075e-03	1.08349251e-04
2.06500000e+00	2.14395689e-03	1.02015623e-04
2.07000000e+00	2.13363560e-03	9.61329623e-05
2.07500000e+00	2.14253997e-03	9.44189016e-05
2.08000000e+00	2.13920348e-03	9.40379424e-05
2.08500000e+00	2.12558046e-03	9.24894440e-05
2.09000000e+00	2.11712697e-03	8.94908611e-05
2.09500000e+00	2.12230524e-03	8.87051362e-05
2.10000000e+00	2.09982201e-03	8.71965686e-05
2.10500000e+00	2.10730542e-03	8.71875506e-05
2.11000000e+00	2.09921842e-03	8.35989002e-05
2.11500000e+00	2.07949551e-03	8.20914666e-05
2.12000000e+00	2.05957892e-03	8.08720369e-05
2.12500000e+00	2.04486596e-03	8.01995192e-05
2.13000000e+00	2.02385161e-03	7.60413482e-05
2.13500000e+00	2.03034510e-03	7.53541919e-05
2.14000000e+00	2.01191877e-03	7.40077814e-05
2.14500000e+00	1.99271204e-03	7.34897705e-05
2.15000000e+00	1.97428084e-03	7.04226082e-05
2.15500000e+00	1.97323843e-03	7.05160310e-05
2.16000000e+00	1.97839639e-03	7.03757564e-05
2.16500000e+00	1.96092503e-03	7.02637895e-05
2.17000000e+00	1.94524489e-03	6.79581324e-05
2.17500000e+00	1.94899210e-03	6.82869365e-05
2.18000000e+00	1.94724409e-03	6.84663184e-05
2.18500000e+00	1.92962556e-03	6.81710356e-05
2.19000000e+00	1.91256978e-03	6.73775233e-05
2.19500000e+00	1.90327966e-03	6.66562406e-05
2.20000000e+00	1.89426487e-03	6.65398074e-05
2.20500000e+00	1.88628456e-03	6.64068129e-05
2.21000000e+00	1.89175604e-03	6.69742050e-05
2.21500000e+00	1.84379801e-03	6.45770624e-05
2.22000000e+00	1.83867909e-03	6.42948436e-05
2.22500000e+00	1.84677583e-03	6.51435272e-05
2.23000000e+00	1.82603828e-03	6.47299269e-05
2.23500000e+00	1.80470386e-03	6.31914644e-05
2.24000000e+00	1.80790427e-03	6.33342214e-05
2.24500000e+00	1.79288539e-03	6.31817142e-05
2.25000000e+00	1.78627479e-03	6.35477470e-05
2.25500000e+00	1.76902043e-03	6.17426408e-05
2.26000000e+00	1.76416968e-03	6.18191077e-05
2.26500000e+00	1.75663763e-03	6.17860378e-05
2.27000000e+00	1.74847985e-03	6.22849312e-05
2.27500000e+00	1.71999242e-03	6.01474870e-05
2.28000000e+00	1.72974762e-03	6.03744684e-05
2.28500000e+00	1.70581375e-03	6.00861235e-05
2.29000000e+00	1.68821915e-03	5.97813848e-05
2.29500000e+00	1.69536284e-03	5.97585576e-05
2.30000000e+00	1.66300155e-03	5.81055105e-05
2.30500000e+00	1.65420999e-03	5.79779369e-05
2.31000000e+00	1.63958543e-03	5.78205047e-05
2.31500000e+00	1.60774792e-03	5.70941679e-05
2.32000000e+00	1.61648982e-03	5.62707588e-05
2.32500000e+00	1.62259247e-03	5.69255819e-05
2.33000000e+00	1.60613484e-03	5.64114459e-05
2.33500000e+00	1.59325701e-03	5.66013208e-05
2.34000000e+00	1.57769603e-03	5.50497301e-05
2.34500000e+00	1.57199877e-03	5.49124378e-05
2.35000000e+00	1.56467416e-03	5.48350255e-05
2.35500000e+00	1.56889791e-03	5.57271458e-05
2.36000000e+00	1.54969590e-03	5.42645967e-05
2.36500000e+00	1.54298583e-03	5.39771077e-05
2.37000000e+00	1.52512403e-03	5.33966468e-05
2.37500000e+00	1.49725678e-03	5.28758601e-05
2.38000000e+00	1.50623011e-03	5.34345159e-05
2.38500000e+00	1.49966423e-03	5.24594063e-05
2.39000000e+00	1.49122122e-03	5.22601564e-05
2.39500000e+00	1.48203276e-03	5.23563532e-05
2.40000000e+00	1.47424593e-03	5.27431695e-05
2.40500000e+00	1.46441912e-03	5.13213585e-05
2.41000000e+00	1.46455124e-03	5.15576406e-05
2.41500000e+00	1.44505166e-03	5.08518174e-05
2.42000000e+00	1.43287023e-03	5.12131075e-05
2.42500000e+00	1.41570542e-03	5.04723104e-05
2.43000000e+00	1.41876205e-03	5.00150200e-05
2.43500000e+00	1.41556261e-03	5.00548235e-05
2.44000000e+00	1.41301413e-03	5.01463962e-05
2.44500000e+00	1.40012273e-03	5.02985367e-05
2.45000000e+00	1.40651149e-03	4.96723363e-05
2.45500000e+00	1.37489467e-03	4.87145489e-05
2.46000000e+00	1.37302112e-03	4.88603468e-05
2.46500000e+00	1.35601982e-03	4.87888290e-05
2.47000000e+00	1.35281054e-03	4.82832101e-05
2.47500000e+00	1.35202435e-03	4.78903698e-05
2.48000000e+00	1.32859240e-03	4.74560005e-05
2.48500000e+00	1.31781213e-03	4.70355930e-05
2.49000000e+00	1.31059947e-03	4.74566346e-05
2.49500000e+00	1.31004864e-03	4.66422597e-05
2.50000000e+00	1.29761310e-03	4.62738572e-05
2.50500000e+00	1.30210770e-03	4.66962594e-05
2.51000000e+00	1.27281853e-03	4.59890233e-05
2.51500000e+00	1.29200081e-03	4.67027009e-05
2.52000000e+00	1.27376376e-03	4.56129596e-05
2.52500000e+00	1.26545713e-03	4.55295829e-05
2.53000000e+00	1.27131257e-03	4.61949143e-05
2.53500000e+00	1.26136418e-03	4.63998512e-05
2.54000000e+00	1.25177114e-03	4.52767593e-05
2.54500000e+00	1.23441218e-03	4.48739094e-05
2.55000000e+00	1.22073263e-03	4.45526496e-05
2.55500000e+00	1.23045719e-03	4.53117897e-05
2.56000000e+00	1.20419371e-03	4.46273695e-05
2.56500000e+00	1.20684413e-03	4.42891441e-05
2.57000000e+00	1.20926839e-03	4.45271729e-05
2.57500000e+00	1.20033413e-03	4.44113540e-05
2.58000000e+00	1.20154338e-03	4.51392214e-05
2.58500000e+00	1.18826081e-03	4.43129426e-05
2.59000000e+00	1.17070536e-03	4.35149284e-05
2.59500000e+00	1.17066854e-03	4.36977504e-05
2.60000000e+00	1.17345682e-03	4.40627454e-05
2.60500000e+00	1.17427765e-03	4.51057123e-05
2.61000000e+00	1.17041362e-03	5.11815670e-05
2.61500000e+00	1.15147030e-03	5.57809979e-05
2.62000000e+00	1.14260086e-03	6.09000097e-05
2.62500000e+00	1.14951650e-03	6.61799436e-05
2.63000000e+00	1.13857297e-03	7.25911264e-05
2.63500000e+00	1.16208394e-03	8.20134778e-05
2.64000000e+00	1.09066245e-03	8.47643717e-05
2.64500000e+00	1.10981774e-03	9.23846084e-05
2.65000000e+00	1.12638964e-03	9.90125574e-05
2.65500000e+00	1.09745806e-03	1.03418949e-04
2.66000000e+00	1.10173888e-03	1.11611560e-04
2.66500000e+00	1.05813845e-03	1.20564401e-04
2.67000000e+00	1.07952378e-03	1.33068202e-04
2.67500000e+00	1.02569621e-03	1.47986379e-04
2.68000000e+00	1.06101579e-03	1.77714370e-04
2.68500000e+00	1.13961545e-03	2.51294158e-04
2.69000000e+00	1.04792347e-03	3.81922890e-04
2.69500000e+00	0.00000000e+00	0.00000000e+00
2.70000000e+00	0.00000000e+00	0.00000000e+00
