% Filename : WDL7_00012_00156.h5
% Date & Time : 30-Oct-2025 14:55:31
% X-ray Energy (keV) : 13.30001
% Exposure Time (s) : 0.500
% Photodiode Value : 136209.000
% I0 of Sample : 0
% I0 of Standard : 1
% 
% q(A^-1)   I(q)    I(q)_SE
8.40000000e-01	0.00000000e+00	0.00000000e+00
8.45000000e-01	2.84942485e-03	4.99545773e-04
8.50000000e-01	2.62500160e-03	2.43775251e-04
8.55000000e-01	2.60753744e-03	2.13133173e-04
8.60000000e-01	2.59730948e-03	1.83859354e-04
8.65000000e-01	2.59937150e-03	1.69452700e-04
8.70000000e-01	2.60681105e-03	1.61940017e-04
8.75000000e-01	2.58294060e-03	1.54469832e-04
8.80000000e-01	2.61340583e-03	1.51115216e-04
8.85000000e-01	2.65186596e-03	1.44904952e-04
8.90000000e-01	2.65547117e-03	1.41987216e-04
8.95000000e-01	2.61867050e-03	1.36215900e-04
9.00000000e-01	2.64881170e-03	1.36379309e-04
9.05000000e-01	2.65090534e-03	1.30553903e-04
9.10000000e-01	2.67634574e-03	1.29374925e-04
9.15000000e-01	2.66210729e-03	1.26693388e-04
9.20000000e-01	2.64088456e-03	1.25562409e-04
9.25000000e-01	2.67439455e-03	1.21593517e-04
9.30000000e-01	2.69556465e-03	1.21316108e-04
9.35000000e-01	2.69395640e-03	1.18886053e-04
9.40000000e-01	2.68974235e-03	1.19115009e-04
9.45000000e-01	2.70620032e-03	1.16921545e-04
9.50000000e-01	2.71015020e-03	1.15340463e-04
9.55000000e-01	2.73381286e-03	1.14200801e-04
9.60000000e-01	2.71228869e-03	1.13391125e-04
9.65000000e-01	2.73311626e-03	1.12497451e-04
9.70000000e-01	2.72684862e-03	1.10310650e-04
9.75000000e-01	2.71852949e-03	1.08737963e-04
9.80000000e-01	2.72058707e-03	1.07990918e-04
9.85000000e-01	2.70992499e-03	1.07716106e-04
9.90000000e-01	2.75350991e-03	1.06093902e-04
9.95000000e-01	2.74854630e-03	1.05435594e-04
1.00000000e+00	2.74079004e-03	1.04550717e-04
1.00500000e+00	2.72020764e-03	1.03921282e-04
1.01000000e+00	2.74687394e-03	1.02594649e-04
1.01500000e+00	2.75898756e-03	1.02058819e-04
1.02000000e+00	2.73431635e-03	1.01017732e-04
1.02500000e+00	2.72492507e-03	9.96136575e-05
1.03000000e+00	2.71380382e-03	9.87653288e-05
1.03500000e+00	2.75376040e-03	9.88009914e-05
1.04000000e+00	2.70944204e-03	9.66134085e-05
1.04500000e+00	2.73013712e-03	9.75678904e-05
1.05000000e+00	2.70436279e-03	9.59745986e-05
1.05500000e+00	2.67894887e-03	9.35578670e-05
1.06000000e+00	2.68244773e-03	9.35206096e-05
1.06500000e+00	2.70880878e-03	9.44269014e-05
1.07000000e+00	2.70110907e-03	9.39822041e-05
1.07500000e+00	2.73673365e-03	9.46122162e-05
1.08000000e+00	2.72598254e-03	9.36222077e-05
1.08500000e+00	2.72607189e-03	9.37365034e-05
1.09000000e+00	2.74149729e-03	9.48271333e-05
1.09500000e+00	2.73000997e-03	9.25151290e-05
1.10000000e+00	2.78377035e-03	9.49632042e-05
1.10500000e+00	2.76104571e-03	9.45536402e-05
1.11000000e+00	2.76330327e-03	9.46686906e-05
1.11500000e+00	2.78800924e-03	9.48295097e-05
1.12000000e+00	2.79293887e-03	9.53866081e-05
1.12500000e+00	2.78260462e-03	9.47684045e-05
1.13000000e+00	2.81209186e-03	9.69286731e-05
1.13500000e+00	2.80600169e-03	9.55086733e-05
1.14000000e+00	2.81916642e-03	9.57969581e-05
1.14500000e+00	2.81795888e-03	9.64700834e-05
1.15000000e+00	2.80065615e-03	9.64375839e-05
1.15500000e+00	2.84022080e-03	9.66979288e-05
1.16000000e+00	2.84920051e-03	9.73857537e-05
1.16500000e+00	2.81994267e-03	9.63405570e-05
1.17000000e+00	2.85834505e-03	9.88306722e-05
1.17500000e+00	2.84655230e-03	9.70430343e-05
1.18000000e+00	2.85826576e-03	9.78883153e-05
1.18500000e+00	2.86358960e-03	9.79878666e-05
1.19000000e+00	2.86208849e-03	9.88664760e-05
1.19500000e+00	2.87017307e-03	9.79515422e-05
1.20000000e+00	2.89437541e-03	9.93368257e-05
1.20500000e+00	2.87821978e-03	9.85659989e-05
1.21000000e+00	2.88442094e-03	1.00096853e-04
1.21500000e+00	2.88848550e-03	9.85919054e-05
1.22000000e+00	2.87690141e-03	9.83381253e-05
1.22500000e+00	2.90305274e-03	9.96104587e-05
1.23000000e+00	2.89975083e-03	1.00234997e-04
1.23500000e+00	2.90364080e-03	9.98054151e-05
1.24000000e+00	2.90777056e-03	9.93831621e-05
1.24500000e+00	2.90109949e-03	9.99176103e-05
1.25000000e+00	2.90044923e-03	1.00437624e-04
1.25500000e+00	2.89186897e-03	9.89130889e-05
1.26000000e+00	2.92347899e-03	1.00643622e-04
1.26500000e+00	2.89985407e-03	9.94539629e-05
1.27000000e+00	2.91484993e-03	1.01422293e-04
1.27500000e+00	2.90617132e-03	1.00153307e-04
1.28000000e+00	2.90775898e-03	9.95822793e-05
1.28500000e+00	2.89585142e-03	9.97997383e-05
1.29000000e+00	2.89611778e-03	1.00575554e-04
1.29500000e+00	2.91193432e-03	1.00145728e-04
1.30000000e+00	2.91061699e-03	9.98835364e-05
1.30500000e+00	2.90131670e-03	1.00036100e-04
1.31000000e+00	2.92661870e-03	1.02073605e-04
1.31500000e+00	2.91805461e-03	1.00528189e-04
1.32000000e+00	2.92982022e-03	1.00799435e-04
1.32500000e+00	2.90574200e-03	1.00254672e-04
1.33000000e+00	2.92198721e-03	1.01932245e-04
1.33500000e+00	2.92068662e-03	1.00582513e-04
1.34000000e+00	2.91699714e-03	1.00563245e-04
1.34500000e+00	2.92350797e-03	1.01175227e-04
1.35000000e+00	2.89604328e-03	1.01144427e-04
1.35500000e+00	2.90921354e-03	1.00243645e-04
1.36000000e+00	2.92597822e-03	1.00618164e-04
1.36500000e+00	2.90289636e-03	1.00215803e-04
1.37000000e+00	2.89815632e-03	1.01514547e-04
1.37500000e+00	2.92060256e-03	1.00762975e-04
1.38000000e+00	2.92160177e-03	1.01013286e-04
1.38500000e+00	2.89718711e-03	1.00694736e-04
1.39000000e+00	2.91988724e-03	1.02256519e-04
1.39500000e+00	2.91636666e-03	1.00523598e-04
1.40000000e+00	2.94060714e-03	1.04405795e-04
1.40500000e+00	2.87805259e-03	1.09994117e-04
1.41000000e+00	2.86604852e-03	1.14748170e-04
1.41500000e+00	2.86003611e-03	1.18692397e-04
1.42000000e+00	2.83437511e-03	1.22308787e-04
1.42500000e+00	2.82258477e-03	1.25420393e-04
1.43000000e+00	2.80298158e-03	1.29234323e-04
1.43500000e+00	2.80745898e-03	1.33300640e-04
1.44000000e+00	2.79550300e-03	1.37871879e-04
1.44500000e+00	2.75473337e-03	1.39835059e-04
1.45000000e+00	2.84624323e-03	1.39485829e-04
1.45500000e+00	2.90220401e-03	1.27610514e-04
1.46000000e+00	2.87696379e-03	1.23617612e-04
1.46500000e+00	2.85327040e-03	1.20443898e-04
1.47000000e+00	2.85934950e-03	1.20481424e-04
1.47500000e+00	2.87045292e-03	1.17378210e-04
1.48000000e+00	2.84926574e-03	1.15312800e-04
1.48500000e+00	2.84967114e-03	1.15347442e-04
1.49000000e+00	2.85413469e-03	1.15753671e-04
1.49500000e+00	2.83225310e-03	1.12430797e-04
1.50000000e+00	2.84166735e-03	1.12395535e-04
1.50500000e+00	2.85940566e-03	1.13736691e-04
1.51000000e+00	2.84239628e-03	1.13245444e-04
1.51500000e+00	2.87101527e-03	1.12503121e-04
1.52000000e+00	2.87345701e-03	1.12311429e-04
1.52500000e+00	2.89636880e-03	1.12915661e-04
1.53000000e+00	2.85087001e-03	1.11816219e-04
1.53500000e+00	2.89520134e-03	1.10346340e-04
1.54000000e+00	2.85787638e-03	1.08848667e-04
1.54500000e+00	2.84882236e-03	1.08231951e-04
1.55000000e+00	2.86126134e-03	1.08406187e-04
1.55500000e+00	2.84360301e-03	1.05308065e-04
1.56000000e+00	2.80725008e-03	1.04212501e-04
1.56500000e+00	2.79631569e-03	1.03225055e-04
1.57000000e+00	2.77231213e-03	1.01738655e-04
1.57500000e+00	2.79229656e-03	1.00525724e-04
1.58000000e+00	2.77208120e-03	9.96124726e-05
1.58500000e+00	2.76160877e-03	9.92034507e-05
1.59000000e+00	2.74943964e-03	9.87984790e-05
1.59500000e+00	2.75888787e-03	9.72135508e-05
1.60000000e+00	2.73294200e-03	9.62909523e-05
1.60500000e+00	2.72679680e-03	9.61520790e-05
1.61000000e+00	2.71985189e-03	9.55030222e-05
1.61500000e+00	2.72848558e-03	9.49325066e-05
1.62000000e+00	2.74041390e-03	9.57610497e-05
1.62500000e+00	2.72087593e-03	9.62396061e-05
1.63000000e+00	2.70850681e-03	9.47138755e-05
1.63500000e+00	2.70422924e-03	9.45689065e-05
1.64000000e+00	2.69335026e-03	9.42584342e-05
1.64500000e+00	2.68229312e-03	9.48540611e-05
1.65000000e+00	2.70696483e-03	9.46581734e-05
1.65500000e+00	2.65982258e-03	9.29755620e-05
1.66000000e+00	2.65597177e-03	9.29307348e-05
1.66500000e+00	2.66293693e-03	9.47051715e-05
1.67000000e+00	2.65823590e-03	9.26166219e-05
1.67500000e+00	2.65184118e-03	9.25950729e-05
1.68000000e+00	2.65113888e-03	9.28590256e-05
1.68500000e+00	2.65851427e-03	9.46787893e-05
1.69000000e+00	2.64241502e-03	9.23205951e-05
1.69500000e+00	2.62488263e-03	9.15016440e-05
1.70000000e+00	2.62340287e-03	9.25341263e-05
1.70500000e+00	2.62836069e-03	9.31412925e-05
1.71000000e+00	2.60228493e-03	9.10285730e-05
1.71500000e+00	2.62175715e-03	9.15964095e-05
1.72000000e+00	2.59920102e-03	9.15497059e-05
1.72500000e+00	2.59899395e-03	9.20455372e-05
1.73000000e+00	2.59029084e-03	9.05109046e-05
1.73500000e+00	2.60452650e-03	9.12835451e-05
1.74000000e+00	2.56754790e-03	9.02323281e-05
1.74500000e+00	2.55965510e-03	9.10098549e-05
1.75000000e+00	2.56999107e-03	8.95905530e-05
1.75500000e+00	2.55989312e-03	8.98054581e-05
1.76000000e+00	2.55673765e-03	8.97744295e-05
1.76500000e+00	2.53959581e-03	9.02209252e-05
1.77000000e+00	2.53172373e-03	8.84965658e-05
1.77500000e+00	2.53262226e-03	8.87384306e-05
1.78000000e+00	2.53554173e-03	8.92297637e-05
1.78500000e+00	2.53649122e-03	9.00881836e-05
1.79000000e+00	2.52797906e-03	8.83574334e-05
1.79500000e+00	2.51343234e-03	8.80509393e-05
1.80000000e+00	2.51193052e-03	8.84781153e-05
1.80500000e+00	2.48975903e-03	8.82975965e-05
1.81000000e+00	2.49027408e-03	8.69742572e-05
1.81500000e+00	2.45918873e-03	8.60726284e-05
1.82000000e+00	2.47820621e-03	8.72108061e-05
1.82500000e+00	2.44481319e-03	8.66646590e-05
1.83000000e+00	2.45533331e-03	8.58844496e-05
1.83500000e+00	2.44439851e-03	8.56644703e-05
1.84000000e+00	2.45655366e-03	8.65622566e-05
1.84500000e+00	2.45153068e-03	8.68869072e-05
1.85000000e+00	2.44353910e-03	8.55326205e-05
1.85500000e+00	2.44698500e-03	8.57193628e-05
1.86000000e+00	2.41539962e-03	8.51716396e-05
1.86500000e+00	2.42037689e-03	8.55809841e-05
1.87000000e+00	2.39458128e-03	8.38614369e-05
1.87500000e+00	2.40314206e-03	8.43980320e-05
1.88000000e+00	2.39724083e-03	8.44629612e-05
1.88500000e+00	2.39634814e-03	8.49867058e-05
1.89000000e+00	2.37600546e-03	8.30798107e-05
1.89500000e+00	2.36354321e-03	8.31032338e-05
1.90000000e+00	2.35726999e-03	8.31891792e-05
1.90500000e+00	2.35679418e-03	8.31338311e-05
1.91000000e+00	2.36238050e-03	8.28690354e-05
1.91500000e+00	2.35982604e-03	8.27505638e-05
1.92000000e+00	2.33154816e-03	8.22230474e-05
1.92500000e+00	2.32708310e-03	8.22599601e-05
1.93000000e+00	2.33368249e-03	8.15893544e-05
1.93500000e+00	2.31242328e-03	8.11436454e-05
1.94000000e+00	2.31539175e-03	8.19670866e-05
1.94500000e+00	2.28641754e-03	8.06460136e-05
1.95000000e+00	2.28864557e-03	8.00308153e-05
1.95500000e+00	2.27680621e-03	7.99043818e-05
1.96000000e+00	2.28419805e-03	8.07036150e-05
1.96500000e+00	2.27825086e-03	8.05995885e-05
1.97000000e+00	2.26757349e-03	7.91637589e-05
1.97500000e+00	2.25618838e-03	7.93443398e-05
1.98000000e+00	2.24515983e-03	7.92575870e-05
1.98500000e+00	2.24530032e-03	7.94404727e-05
1.99000000e+00	2.22714488e-03	7.77383098e-05
1.99500000e+00	2.21906721e-03	7.79018926e-05
2.00000000e+00	2.20778546e-03	7.80256171e-05
2.00500000e+00	2.23186146e-03	7.90274463e-05
2.01000000e+00	2.19432004e-03	8.52561953e-05
2.01500000e+00	2.18007895e-03	8.99414761e-05
2.02000000e+00	2.15488694e-03	9.46931723e-05
2.02500000e+00	2.15088721e-03	9.83243205e-05
2.03000000e+00	2.15216682e-03	1.04322506e-04
2.03500000e+00	2.14989501e-03	1.08766285e-04
2.04000000e+00	2.13945362e-03	1.13290997e-04
2.04500000e+00	2.12440839e-03	1.18218754e-04
2.05000000e+00	2.07645296e-03	1.21491526e-04
2.05500000e+00	2.08924330e-03	1.19620588e-04
2.06000000e+00	2.16267800e-03	1.07613226e-04
2.06500000e+00	2.12542496e-03	1.01265967e-04
2.07000000e+00	2.12353317e-03	9.55757640e-05
2.07500000e+00	2.08132384e-03	9.16415314e-05
2.08000000e+00	2.10718865e-03	9.25685606e-05
2.08500000e+00	2.12760908e-03	9.26471935e-05
2.09000000e+00	2.10542228e-03	8.89637960e-05
2.09500000e+00	2.10676231e-03	8.81153647e-05
2.10000000e+00	2.09744181e-03	8.70157008e-05
2.10500000e+00	2.09331650e-03	8.65815039e-05
2.11000000e+00	2.09027333e-03	8.33292895e-05
2.11500000e+00	2.06915634e-03	8.17286315e-05
2.12000000e+00	2.05236985e-03	8.05870698e-05
2.12500000e+00	2.03414926e-03	7.96701699e-05
2.13000000e+00	2.01495420e-03	7.56769369e-05
2.13500000e+00	2.01923172e-03	7.49543840e-05
2.14000000e+00	1.97620507e-03	7.27710849e-05
2.14500000e+00	1.97391643e-03	7.28593229e-05
2.15000000e+00	1.94831981e-03	6.95541147e-05
2.15500000e+00	1.95828149e-03	7.00552472e-05
2.16000000e+00	1.94922939e-03	6.93548975e-05
2.16500000e+00	1.94041968e-03	6.94892210e-05
2.17000000e+00	1.94932139e-03	6.81355627e-05
2.17500000e+00	1.92185101e-03	6.73800798e-05
2.18000000e+00	1.90416297e-03	6.69872647e-05
2.18500000e+00	1.90278439e-03	6.72705156e-05
2.19000000e+00	1.88465468e-03	6.64086269e-05
2.19500000e+00	1.88502481e-03	6.60055002e-05
2.20000000e+00	1.87243557e-03	6.57970728e-05
2.20500000e+00	1.86632029e-03	6.57456022e-05
2.21000000e+00	1.86493605e-03	6.59795515e-05
2.21500000e+00	1.85705950e-03	6.50037036e-05
2.22000000e+00	1.83503694e-03	6.42690079e-05
2.22500000e+00	1.80405756e-03	6.36909167e-05
2.23000000e+00	1.80994117e-03	6.41591905e-05
2.23500000e+00	1.78848179e-03	6.26129020e-05
2.24000000e+00	1.78567358e-03	6.24943222e-05
2.24500000e+00	1.78761576e-03	6.30036954e-05
2.25000000e+00	1.75445885e-03	6.23762152e-05
2.25500000e+00	1.76206951e-03	6.15373311e-05
2.26000000e+00	1.76164392e-03	6.17036929e-05
2.26500000e+00	1.73011277e-03	6.08550989e-05
2.27000000e+00	1.72266052e-03	6.14333296e-05
2.27500000e+00	1.72002773e-03	6.01100017e-05
2.28000000e+00	1.70337310e-03	5.95625651e-05
2.28500000e+00	1.69108320e-03	5.96080458e-05
2.29000000e+00	1.67753988e-03	5.93696394e-05
2.29500000e+00	1.65740858e-03	5.85010052e-05
2.30000000e+00	1.64211565e-03	5.74159549e-05
2.30500000e+00	1.64716669e-03	5.76632503e-05
2.31000000e+00	1.63387178e-03	5.76176101e-05
2.31500000e+00	1.61649183e-03	5.74249536e-05
2.32000000e+00	1.61432127e-03	5.61426869e-05
2.32500000e+00	1.60179396e-03	5.63007619e-05
2.33000000e+00	1.58713039e-03	5.57501205e-05
2.33500000e+00	1.57830268e-03	5.60245389e-05
2.34000000e+00	1.58452167e-03	5.53324144e-05
2.34500000e+00	1.57634982e-03	5.50370216e-05
2.35000000e+00	1.55194069e-03	5.44305905e-05
2.35500000e+00	1.55691641e-03	5.52439860e-05
2.36000000e+00	1.54678202e-03	5.42170910e-05
2.36500000e+00	1.51933111e-03	5.31466589e-05
2.37000000e+00	1.50990357e-03	5.28745195e-05
2.37500000e+00	1.49275490e-03	5.26727141e-05
2.38000000e+00	1.50349933e-03	5.33607135e-05
2.38500000e+00	1.49066426e-03	5.21516064e-05
2.39000000e+00	1.47468975e-03	5.17907635e-05
2.39500000e+00	1.45068976e-03	5.12021456e-05
2.40000000e+00	1.45435405e-03	5.20465549e-05
2.40500000e+00	1.46089582e-03	5.12341898e-05
2.41000000e+00	1.45349593e-03	5.10644992e-05
2.41500000e+00	1.44156822e-03	5.07878558e-05
2.42000000e+00	1.41820410e-03	5.05908667e-05
2.42500000e+00	1.40867205e-03	5.01694858e-05
2.43000000e+00	1.39811621e-03	4.92509644e-05
2.43500000e+00	1.39226056e-03	4.92873141e-05
2.44000000e+00	1.39510999e-03	4.95303153e-05
2.44500000e+00	1.37562476e-03	4.94700063e-05
2.45000000e+00	1.38444409e-03	4.88438701e-05
2.45500000e+00	1.36963118e-03	4.85236452e-05
2.46000000e+00	1.35347277e-03	4.82311588e-05
2.46500000e+00	1.35052163e-03	4.86770101e-05
2.47000000e+00	1.35133652e-03	4.81203378e-05
2.47500000e+00	1.32433190e-03	4.69327441e-05
2.48000000e+00	1.31597987e-03	4.70562129e-05
2.48500000e+00	1.32141350e-03	4.72010708e-05
2.49000000e+00	1.30777345e-03	4.74331289e-05
2.49500000e+00	1.29165920e-03	4.59216831e-05
2.50000000e+00	1.29258250e-03	4.61840639e-05
2.50500000e+00	1.29806468e-03	4.64889967e-05
2.51000000e+00	1.29066751e-03	4.66193428e-05
2.51500000e+00	1.26561409e-03	4.58085349e-05
2.52000000e+00	1.27401282e-03	4.56502329e-05
2.52500000e+00	1.24549472e-03	4.48926730e-05
2.53000000e+00	1.24797518e-03	4.53308081e-05
2.53500000e+00	1.22957538e-03	4.52004728e-05
2.54000000e+00	1.23287178e-03	4.45904981e-05
2.54500000e+00	1.21630286e-03	4.41718581e-05
2.55000000e+00	1.23496920e-03	4.50663811e-05
2.55500000e+00	1.21705916e-03	4.48239612e-05
2.56000000e+00	1.21061773e-03	4.47568500e-05
2.56500000e+00	1.19420565e-03	4.37853835e-05
2.57000000e+00	1.19732696e-03	4.40943668e-05
2.57500000e+00	1.18413697e-03	4.37656092e-05
2.58000000e+00	1.18139118e-03	4.43849943e-05
2.58500000e+00	1.15325051e-03	4.29765060e-05
2.59000000e+00	1.15826417e-03	4.29392940e-05
2.59500000e+00	1.15516200e-03	4.30861690e-05
2.60000000e+00	1.15812116e-03	4.34624949e-05
2.60500000e+00	1.15630631e-03	4.43759743e-05
2.61000000e+00	1.15147999e-03	5.03916795e-05
2.61500000e+00	1.12790612e-03	5.46724343e-05
2.62000000e+00	1.12581429e-03	5.98485677e-05
2.62500000e+00	1.11835490e-03	6.43496788e-05
2.63000000e+00	1.11378966e-03	7.08056907e-05
2.63500000e+00	1.09554782e-03	7.72050482e-05
2.64000000e+00	1.11080017e-03	8.63453051e-05
2.64500000e+00	1.11845435e-03	9.30338503e-05
2.65000000e+00	1.10987026e-03	9.74723715e-05
2.65500000e+00	1.08469854e-03	1.02253659e-04
2.66000000e+00	1.07136264e-03	1.08451408e-04
2.66500000e+00	1.11998518e-03	1.27077205e-04
2.67000000e+00	1.12461945e-03	1.39364211e-04
2.67500000e+00	1.08029681e-03	1.54947096e-04
2.68000000e+00	1.04813758e-03	1.74814158e-04
2.68500000e+00	1.09050299e-03	2.41263912e-04
2.69000000e+00	1.17058224e-03	4.18490109e-04
2.69500000e+00	0.00000000e+00	0.00000000e+00
2.70000000e+00	0.00000000e+00	0.00000000e+00
