% Filename : WDL7_00011_00006.h5
% Date & Time : 30-Oct-2025 14:43:56
% X-ray Energy (keV) : 13.30001
% Exposure Time (s) : 0.500
% Photodiode Value : 134848.000
% I0 of Sample : 0
% I0 of Standard : 1
% 
% q(A^-1)   I(q)    I(q)_SE
8.40000000e-01	0.00000000e+00	0.00000000e+00
8.45000000e-01	3.47001067e-03	6.07794403e-04
8.50000000e-01	3.33221755e-03	3.09299751e-04
8.55000000e-01	3.20071945e-03	2.61206694e-04
8.60000000e-01	3.19933850e-03	2.25967710e-04
8.65000000e-01	3.16684297e-03	2.06220536e-04
8.70000000e-01	3.16595628e-03	1.96503062e-04
8.75000000e-01	3.15993474e-03	1.88888868e-04
8.80000000e-01	3.20738905e-03	1.85188957e-04
8.85000000e-01	3.19719634e-03	1.74455560e-04
8.90000000e-01	3.23461858e-03	1.72835649e-04
8.95000000e-01	3.21957314e-03	1.67141788e-04
9.00000000e-01	3.25258671e-03	1.67296906e-04
9.05000000e-01	3.24128731e-03	1.59415325e-04
9.10000000e-01	3.26314284e-03	1.57425296e-04
9.15000000e-01	3.29227446e-03	1.56448057e-04
9.20000000e-01	3.27954616e-03	1.55612174e-04
9.25000000e-01	3.31845634e-03	1.50530182e-04
9.30000000e-01	3.31931501e-03	1.49113714e-04
9.35000000e-01	3.32613937e-03	1.46652117e-04
9.40000000e-01	3.32986565e-03	1.47163847e-04
9.45000000e-01	3.34554772e-03	1.44147702e-04
9.50000000e-01	3.31346900e-03	1.40708906e-04
9.55000000e-01	3.37990630e-03	1.40992598e-04
9.60000000e-01	3.37661966e-03	1.40933940e-04
9.65000000e-01	3.40109131e-03	1.39573358e-04
9.70000000e-01	3.38352030e-03	1.36698424e-04
9.75000000e-01	3.38958752e-03	1.35409169e-04
9.80000000e-01	3.40685044e-03	1.34884947e-04
9.85000000e-01	3.40333031e-03	1.34832064e-04
9.90000000e-01	3.42721120e-03	1.31655766e-04
9.95000000e-01	3.43189183e-03	1.31246487e-04
1.00000000e+00	3.44624591e-03	1.31071167e-04
1.00500000e+00	3.47441418e-03	1.32257804e-04
1.01000000e+00	3.44492953e-03	1.28307966e-04
1.01500000e+00	3.46234230e-03	1.27658611e-04
1.02000000e+00	3.45356508e-03	1.27152140e-04
1.02500000e+00	3.44976650e-03	1.25524484e-04
1.03000000e+00	3.45674844e-03	1.25302371e-04
1.03500000e+00	3.48185927e-03	1.24478356e-04
1.04000000e+00	3.46525467e-03	1.22918136e-04
1.04500000e+00	3.46257678e-03	1.23010744e-04
1.05000000e+00	3.45171515e-03	1.21677325e-04
1.05500000e+00	3.44972181e-03	1.19826348e-04
1.06000000e+00	3.48132525e-03	1.20525692e-04
1.06500000e+00	3.47928416e-03	1.20706327e-04
1.07000000e+00	3.51828875e-03	1.21818901e-04
1.07500000e+00	3.52493556e-03	1.21127794e-04
1.08000000e+00	3.50975017e-03	1.19866479e-04
1.08500000e+00	3.54453969e-03	1.21188752e-04
1.09000000e+00	3.53762204e-03	1.21597568e-04
1.09500000e+00	3.53502928e-03	1.19191842e-04
1.10000000e+00	3.57028411e-03	1.21059240e-04
1.10500000e+00	3.58264775e-03	1.21922032e-04
1.11000000e+00	3.58680816e-03	1.22181748e-04
1.11500000e+00	3.60294777e-03	1.21846081e-04
1.12000000e+00	3.62874730e-03	1.23255490e-04
1.12500000e+00	3.65602734e-03	1.23873648e-04
1.13000000e+00	3.62542865e-03	1.24318457e-04
1.13500000e+00	3.64944938e-03	1.23592189e-04
1.14000000e+00	3.67982626e-03	1.24432457e-04
1.14500000e+00	3.70842389e-03	1.26367501e-04
1.15000000e+00	3.68787246e-03	1.26326314e-04
1.15500000e+00	3.68407627e-03	1.24940741e-04
1.16000000e+00	3.71570938e-03	1.26424496e-04
1.16500000e+00	3.75732506e-03	1.27698033e-04
1.17000000e+00	3.74136659e-03	1.28732510e-04
1.17500000e+00	3.75054744e-03	1.27269738e-04
1.18000000e+00	3.75398103e-03	1.27859666e-04
1.18500000e+00	3.78733917e-03	1.28917592e-04
1.19000000e+00	3.79175126e-03	1.30434489e-04
1.19500000e+00	3.81491165e-03	1.29676913e-04
1.20000000e+00	3.82993670e-03	1.30930749e-04
1.20500000e+00	3.82560907e-03	1.30485816e-04
1.21000000e+00	3.82447324e-03	1.32132104e-04
1.21500000e+00	3.85845149e-03	1.31335726e-04
1.22000000e+00	3.86403725e-03	1.31574212e-04
1.22500000e+00	3.88271976e-03	1.32732335e-04
1.23000000e+00	3.86646753e-03	1.33185881e-04
1.23500000e+00	3.89866347e-03	1.33439372e-04
1.24000000e+00	3.90304142e-03	1.32946766e-04
1.24500000e+00	3.92245782e-03	1.34733507e-04
1.25000000e+00	3.93761015e-03	1.35855277e-04
1.25500000e+00	3.97633583e-03	1.35621254e-04
1.26000000e+00	3.95885530e-03	1.35876732e-04
1.26500000e+00	3.95221910e-03	1.35001470e-04
1.27000000e+00	3.96565860e-03	1.37515026e-04
1.27500000e+00	3.96634666e-03	1.36285922e-04
1.28000000e+00	3.97809133e-03	1.35783483e-04
1.28500000e+00	3.98257500e-03	1.36648173e-04
1.29000000e+00	3.96114418e-03	1.37221268e-04
1.29500000e+00	4.02294446e-03	1.37857695e-04
1.30000000e+00	4.02474124e-03	1.37693666e-04
1.30500000e+00	3.99194093e-03	1.37110120e-04
1.31000000e+00	4.02660963e-03	1.39964207e-04
1.31500000e+00	4.02588085e-03	1.38143755e-04
1.32000000e+00	4.00823636e-03	1.37455342e-04
1.32500000e+00	4.04239776e-03	1.39017009e-04
1.33000000e+00	4.04834449e-03	1.40796059e-04
1.33500000e+00	4.04102680e-03	1.38697372e-04
1.34000000e+00	4.06992760e-03	1.39830686e-04
1.34500000e+00	4.06480164e-03	1.40190849e-04
1.35000000e+00	4.04742541e-03	1.41000635e-04
1.35500000e+00	4.07912843e-03	1.40151550e-04
1.36000000e+00	4.05621634e-03	1.39018339e-04
1.36500000e+00	4.05491619e-03	1.39508367e-04
1.37000000e+00	4.07620156e-03	1.42315990e-04
1.37500000e+00	4.09050581e-03	1.40659102e-04
1.38000000e+00	4.07851261e-03	1.40563147e-04
1.38500000e+00	4.09897413e-03	1.41981005e-04
1.39000000e+00	4.06538584e-03	1.41792496e-04
1.39500000e+00	4.09994286e-03	1.40911773e-04
1.40000000e+00	4.14470077e-03	1.46707982e-04
1.40500000e+00	4.10398234e-03	1.56418395e-04
1.41000000e+00	4.09540822e-03	1.63335230e-04
1.41500000e+00	4.04944561e-03	1.67326762e-04
1.42000000e+00	4.03016494e-03	1.73250252e-04
1.42500000e+00	4.03977850e-03	1.78811088e-04
1.43000000e+00	4.03446566e-03	1.85437988e-04
1.43500000e+00	4.03589615e-03	1.91161164e-04
1.44000000e+00	4.06949575e-03	2.00197679e-04
1.44500000e+00	3.98702012e-03	2.01200641e-04
1.45000000e+00	4.10957095e-03	2.00581868e-04
1.45500000e+00	4.12929510e-03	1.81022817e-04
1.46000000e+00	4.10083891e-03	1.75684658e-04
1.46500000e+00	4.11970066e-03	1.73332788e-04
1.47000000e+00	4.11190114e-03	1.72696399e-04
1.47500000e+00	4.10805276e-03	1.67372434e-04
1.48000000e+00	4.12870675e-03	1.66545850e-04
1.48500000e+00	4.10882302e-03	1.65858148e-04
1.49000000e+00	4.10142070e-03	1.66004048e-04
1.49500000e+00	4.13420025e-03	1.63492417e-04
1.50000000e+00	4.14917745e-03	1.63573760e-04
1.50500000e+00	4.18956006e-03	1.66047936e-04
1.51000000e+00	4.20893249e-03	1.67163303e-04
1.51500000e+00	4.32346074e-03	1.68971064e-04
1.52000000e+00	4.39451050e-03	1.71240720e-04
1.52500000e+00	4.33082680e-03	1.68687243e-04
1.53000000e+00	4.20670035e-03	1.64773051e-04
1.53500000e+00	4.17230661e-03	1.58698528e-04
1.54000000e+00	4.15923869e-03	1.58006462e-04
1.54500000e+00	4.14746136e-03	1.57186510e-04
1.55000000e+00	4.10084460e-03	1.55004267e-04
1.55500000e+00	4.10911056e-03	1.51826768e-04
1.56000000e+00	4.10415568e-03	1.51976813e-04
1.56500000e+00	4.09921931e-03	1.50992868e-04
1.57000000e+00	4.11344870e-03	1.50345939e-04
1.57500000e+00	4.07241425e-03	1.46123566e-04
1.58000000e+00	4.06257257e-03	1.45468321e-04
1.58500000e+00	4.04482538e-03	1.44911004e-04
1.59000000e+00	4.05529257e-03	1.45362126e-04
1.59500000e+00	4.04908409e-03	1.42353261e-04
1.60000000e+00	4.04454726e-03	1.42096394e-04
1.60500000e+00	4.04426020e-03	1.42201502e-04
1.61000000e+00	4.02833856e-03	1.41051491e-04
1.61500000e+00	4.00712025e-03	1.38950046e-04
1.62000000e+00	3.98277556e-03	1.38760609e-04
1.62500000e+00	3.99016628e-03	1.40644644e-04
1.63000000e+00	3.97420754e-03	1.38603682e-04
1.63500000e+00	3.99499684e-03	1.39316942e-04
1.64000000e+00	3.94782779e-03	1.37745082e-04
1.64500000e+00	3.94346940e-03	1.39110920e-04
1.65000000e+00	3.96959588e-03	1.38490364e-04
1.65500000e+00	3.93056896e-03	1.36966443e-04
1.66000000e+00	3.91607874e-03	1.36632298e-04
1.66500000e+00	3.94107602e-03	1.39717519e-04
1.67000000e+00	3.92068899e-03	1.36182990e-04
1.67500000e+00	3.92730986e-03	1.36734265e-04
1.68000000e+00	3.92294873e-03	1.36971262e-04
1.68500000e+00	3.92679770e-03	1.39466349e-04
1.69000000e+00	3.89837556e-03	1.35733577e-04
1.69500000e+00	3.90195802e-03	1.35662706e-04
1.70000000e+00	3.85883034e-03	1.35631887e-04
1.70500000e+00	3.84622492e-03	1.35906562e-04
1.71000000e+00	3.88002137e-03	1.35252282e-04
1.71500000e+00	3.85514883e-03	1.34423944e-04
1.72000000e+00	3.85664489e-03	1.35509215e-04
1.72500000e+00	3.82821841e-03	1.35360225e-04
1.73000000e+00	3.82874107e-03	1.33495273e-04
1.73500000e+00	3.83683893e-03	1.34136327e-04
1.74000000e+00	3.79492606e-03	1.33022628e-04
1.74500000e+00	3.80572243e-03	1.34923068e-04
1.75000000e+00	3.78189440e-03	1.31501095e-04
1.75500000e+00	3.79567296e-03	1.32894744e-04
1.76000000e+00	3.78625034e-03	1.32509026e-04
1.76500000e+00	3.75853537e-03	1.33178268e-04
1.77000000e+00	3.75195378e-03	1.30687767e-04
1.77500000e+00	3.76985622e-03	1.31801232e-04
1.78000000e+00	3.75941162e-03	1.31848867e-04
1.78500000e+00	3.75750533e-03	1.33079792e-04
1.79000000e+00	3.75242053e-03	1.30693246e-04
1.79500000e+00	3.73073706e-03	1.30356320e-04
1.80000000e+00	3.73184002e-03	1.31145331e-04
1.80500000e+00	3.70741358e-03	1.31169367e-04
1.81000000e+00	3.72742569e-03	1.29844211e-04
1.81500000e+00	3.72564286e-03	1.29962392e-04
1.82000000e+00	3.70159557e-03	1.29945305e-04
1.82500000e+00	3.70116212e-03	1.30727913e-04
1.83000000e+00	3.67594857e-03	1.28227227e-04
1.83500000e+00	3.68204807e-03	1.28615637e-04
1.84000000e+00	3.67665965e-03	1.29125005e-04
1.84500000e+00	3.67223435e-03	1.29697464e-04
1.85000000e+00	3.66058313e-03	1.27856190e-04
1.85500000e+00	3.63966998e-03	1.27198872e-04
1.86000000e+00	3.64472317e-03	1.28213411e-04
1.86500000e+00	3.64068551e-03	1.28354300e-04
1.87000000e+00	3.63165249e-03	1.26692312e-04
1.87500000e+00	3.60195062e-03	1.26080892e-04
1.88000000e+00	3.58753803e-03	1.26053825e-04
1.88500000e+00	3.55147804e-03	1.25480316e-04
1.89000000e+00	3.57296438e-03	1.24508420e-04
1.89500000e+00	3.54823310e-03	1.24312076e-04
1.90000000e+00	3.53102491e-03	1.24147278e-04
1.90500000e+00	3.51752922e-03	1.23752606e-04
1.91000000e+00	3.51125208e-03	1.22714161e-04
1.91500000e+00	3.47860874e-03	1.21658850e-04
1.92000000e+00	3.46226095e-03	1.21761584e-04
1.92500000e+00	3.48294871e-03	1.22678138e-04
1.93000000e+00	3.42571949e-03	1.19543909e-04
1.93500000e+00	3.45785380e-03	1.21012911e-04
1.94000000e+00	3.43917433e-03	1.21235998e-04
1.94500000e+00	3.40892221e-03	1.19924386e-04
1.95000000e+00	3.39083411e-03	1.18115109e-04
1.95500000e+00	3.36218957e-03	1.17677004e-04
1.96000000e+00	3.38296925e-03	1.19087651e-04
1.96500000e+00	3.34576810e-03	1.17860144e-04
1.97000000e+00	3.34948348e-03	1.16620214e-04
1.97500000e+00	3.35676618e-03	1.17580565e-04
1.98000000e+00	3.31899998e-03	1.16834183e-04
1.98500000e+00	3.30360271e-03	1.16462959e-04
1.99000000e+00	3.29411361e-03	1.14678921e-04
1.99500000e+00	3.30194002e-03	1.15450976e-04
2.00000000e+00	3.27251913e-03	1.15291733e-04
2.00500000e+00	3.31043369e-03	1.16772995e-04
2.01000000e+00	3.29263334e-03	1.27477046e-04
2.01500000e+00	3.29413917e-03	1.35435068e-04
2.02000000e+00	3.24220759e-03	1.42131841e-04
2.02500000e+00	3.22597230e-03	1.46881531e-04
2.03000000e+00	3.22112034e-03	1.55288881e-04
2.03500000e+00	3.21122880e-03	1.61646958e-04
2.04000000e+00	3.17738251e-03	1.67468755e-04
2.04500000e+00	3.14113009e-03	1.74076664e-04
2.05000000e+00	3.14465839e-03	1.82990886e-04
2.05500000e+00	3.18357660e-03	1.81573305e-04
2.06000000e+00	3.21355600e-03	1.59388095e-04
2.06500000e+00	3.18752072e-03	1.50968787e-04
2.07000000e+00	3.13863157e-03	1.40844340e-04
2.07500000e+00	3.16302993e-03	1.38691443e-04
2.08000000e+00	3.18237691e-03	1.39345716e-04
2.08500000e+00	3.13442273e-03	1.36053193e-04
2.09000000e+00	3.14657066e-03	1.32573068e-04
2.09500000e+00	3.13589975e-03	1.30739214e-04
2.10000000e+00	3.11329953e-03	1.28930491e-04
2.10500000e+00	3.08561106e-03	1.27390467e-04
2.11000000e+00	3.10097750e-03	1.23309705e-04
2.11500000e+00	3.07975337e-03	1.21287404e-04
2.12000000e+00	3.03852620e-03	1.18988016e-04
2.12500000e+00	3.02461810e-03	1.18112305e-04
2.13000000e+00	3.03037755e-03	1.13501236e-04
2.13500000e+00	3.02152998e-03	1.11719935e-04
2.14000000e+00	2.99214485e-03	1.09711068e-04
2.14500000e+00	2.94427262e-03	1.08119150e-04
2.15000000e+00	2.94705634e-03	1.04720695e-04
2.15500000e+00	2.96226114e-03	1.05417787e-04
2.16000000e+00	2.94522799e-03	1.04329799e-04
2.16500000e+00	2.93720258e-03	1.04818874e-04
2.17000000e+00	2.90733251e-03	1.01183966e-04
2.17500000e+00	2.90076682e-03	1.01240021e-04
2.18000000e+00	2.89934805e-03	1.01504706e-04
2.18500000e+00	2.84952982e-03	1.00222088e-04
2.19000000e+00	2.85527692e-03	1.00136788e-04
2.19500000e+00	2.85568327e-03	9.95604746e-05
2.20000000e+00	2.84100209e-03	9.93075838e-05
2.20500000e+00	2.83613632e-03	9.94414546e-05
2.21000000e+00	2.79587509e-03	9.85099762e-05
2.21500000e+00	2.78549209e-03	9.71589083e-05
2.22000000e+00	2.77877285e-03	9.67710374e-05
2.22500000e+00	2.74354115e-03	9.63427774e-05
2.23000000e+00	2.74441835e-03	9.69673430e-05
2.23500000e+00	2.72223448e-03	9.48181292e-05
2.24000000e+00	2.71788856e-03	9.46926021e-05
2.24500000e+00	2.71130769e-03	9.51294387e-05
2.25000000e+00	2.69276092e-03	9.53055396e-05
2.25500000e+00	2.66578133e-03	9.26703036e-05
2.26000000e+00	2.65196876e-03	9.25165740e-05
2.26500000e+00	2.66382037e-03	9.32624340e-05
2.27000000e+00	2.61744279e-03	9.29233705e-05
2.27500000e+00	2.61376877e-03	9.08913626e-05
2.28000000e+00	2.56997475e-03	8.94602833e-05
2.28500000e+00	2.56415210e-03	8.98926531e-05
2.29000000e+00	2.58596782e-03	9.10629213e-05
2.29500000e+00	2.55317174e-03	8.96527829e-05
2.30000000e+00	2.54890080e-03	8.86117954e-05
2.30500000e+00	2.53503177e-03	8.83968755e-05
2.31000000e+00	2.51661364e-03	8.82211495e-05
2.31500000e+00	2.50398300e-03	8.84570426e-05
2.32000000e+00	2.50356399e-03	8.67121508e-05
2.32500000e+00	2.47265161e-03	8.62924828e-05
2.33000000e+00	2.46096632e-03	8.61534604e-05
2.33500000e+00	2.44239768e-03	8.63949231e-05
2.34000000e+00	2.42031834e-03	8.41751141e-05
2.34500000e+00	2.41414369e-03	8.39528667e-05
2.35000000e+00	2.41731653e-03	8.42876360e-05
2.35500000e+00	2.38378737e-03	8.42753783e-05
2.36000000e+00	2.38009486e-03	8.29830298e-05
2.36500000e+00	2.36294078e-03	8.23319610e-05
2.37000000e+00	2.34342299e-03	8.16546912e-05
2.37500000e+00	2.34754824e-03	8.25295763e-05
2.38000000e+00	2.33135116e-03	8.23803899e-05
2.38500000e+00	2.32385874e-03	8.09414656e-05
2.39000000e+00	2.28633693e-03	7.99703998e-05
2.39500000e+00	2.28828910e-03	8.04221940e-05
2.40000000e+00	2.25862214e-03	8.04791792e-05
2.40500000e+00	2.28680148e-03	7.98995248e-05
2.41000000e+00	2.25930398e-03	7.92082961e-05
2.41500000e+00	2.22173502e-03	7.79621188e-05
2.42000000e+00	2.24619470e-03	7.98611795e-05
2.42500000e+00	2.22563034e-03	7.90255892e-05
2.43000000e+00	2.19705632e-03	7.72508397e-05
2.43500000e+00	2.20020939e-03	7.77097125e-05
2.44000000e+00	2.19407147e-03	7.76214012e-05
2.44500000e+00	2.18675789e-03	7.83721534e-05
2.45000000e+00	2.15987446e-03	7.60403092e-05
2.45500000e+00	2.14933289e-03	7.59949129e-05
2.46000000e+00	2.13637927e-03	7.57661922e-05
2.46500000e+00	2.13249142e-03	7.65928882e-05
2.47000000e+00	2.12803936e-03	7.57891691e-05
2.47500000e+00	2.11289874e-03	7.47212493e-05
2.48000000e+00	2.11050136e-03	7.53673886e-05
2.48500000e+00	2.08556093e-03	7.44669335e-05
2.49000000e+00	2.08464597e-03	7.53661473e-05
2.49500000e+00	2.06812000e-03	7.33573382e-05
2.50000000e+00	2.06160772e-03	7.33382575e-05
2.50500000e+00	2.06001819e-03	7.37823005e-05
2.51000000e+00	2.02204402e-03	7.28862269e-05
2.51500000e+00	2.03493680e-03	7.34815258e-05
2.52000000e+00	2.03815884e-03	7.29291611e-05
2.52500000e+00	2.01829857e-03	7.25792986e-05
2.53000000e+00	2.01824369e-03	7.32504835e-05
2.53500000e+00	1.99089383e-03	7.30977695e-05
2.54000000e+00	1.96495132e-03	7.10020377e-05
2.54500000e+00	1.99143131e-03	7.22413811e-05
2.55000000e+00	1.98001854e-03	7.21492712e-05
2.55500000e+00	1.97409535e-03	7.24834245e-05
2.56000000e+00	1.93352230e-03	7.14404035e-05
2.56500000e+00	1.93576984e-03	7.08468955e-05
2.57000000e+00	1.96187084e-03	7.22033487e-05
2.57500000e+00	1.93653640e-03	7.13754899e-05
2.58000000e+00	1.92955289e-03	7.22255034e-05
2.58500000e+00	1.89077296e-03	7.03314980e-05
2.59000000e+00	1.90207962e-03	7.05054088e-05
2.59500000e+00	1.90533218e-03	7.08452563e-05
2.60000000e+00	1.89058938e-03	7.09168402e-05
2.60500000e+00	1.91634020e-03	7.35190914e-05
2.61000000e+00	1.88412539e-03	8.25894446e-05
2.61500000e+00	1.85685513e-03	9.00473160e-05
2.62000000e+00	1.83928131e-03	9.81833265e-05
2.62500000e+00	1.81022417e-03	1.04899628e-04
2.63000000e+00	1.79993084e-03	1.15278302e-04
2.63500000e+00	1.88629247e-03	1.32877352e-04
2.64000000e+00	1.94406701e-03	1.50102183e-04
2.64500000e+00	1.88813061e-03	1.55672455e-04
2.65000000e+00	1.93132743e-03	1.68449683e-04
2.65500000e+00	1.87656810e-03	1.76360122e-04
2.66000000e+00	1.89180834e-03	1.90990251e-04
2.66500000e+00	1.87917275e-03	2.12206557e-04
2.67000000e+00	1.88377613e-03	2.30572460e-04
2.67500000e+00	1.78563014e-03	2.55634566e-04
2.68000000e+00	1.83945600e-03	3.05894694e-04
2.68500000e+00	1.81857768e-03	4.00050982e-04
2.69000000e+00	1.81022355e-03	6.47994297e-04
2.69500000e+00	0.00000000e+00	0.00000000e+00
2.70000000e+00	0.00000000e+00	0.00000000e+00
