% Filename : WDL7_00012_00046.h5
% Date & Time : 30-Oct-2025 14:48:51
% X-ray Energy (keV) : 13.30001
% Exposure Time (s) : 0.500
% Photodiode Value : 134943.000
% I0 of Sample : 0
% I0 of Standard : 1
% 
% q(A^-1)   I(q)    I(q)_SE
8.40000000e-01	0.00000000e+00	0.00000000e+00
8.45000000e-01	3.48525854e-03	6.11822153e-04
8.50000000e-01	3.40230843e-03	3.15153020e-04
8.55000000e-01	3.34631091e-03	2.73531795e-04
8.60000000e-01	3.26446111e-03	2.30720165e-04
8.65000000e-01	3.32590141e-03	2.16441895e-04
8.70000000e-01	3.33079849e-03	2.06750797e-04
8.75000000e-01	3.35864235e-03	2.00572674e-04
8.80000000e-01	3.36828019e-03	1.94468304e-04
8.85000000e-01	3.38044169e-03	1.84585329e-04
8.90000000e-01	3.39785004e-03	1.81476326e-04
8.95000000e-01	3.38191231e-03	1.75580914e-04
9.00000000e-01	3.39328187e-03	1.74646396e-04
9.05000000e-01	3.41044441e-03	1.67640058e-04
9.10000000e-01	3.42000193e-03	1.65025297e-04
9.15000000e-01	3.47614035e-03	1.65065872e-04
9.20000000e-01	3.43942974e-03	1.63137230e-04
9.25000000e-01	3.47478545e-03	1.57784767e-04
9.30000000e-01	3.50316916e-03	1.57378371e-04
9.35000000e-01	3.51259474e-03	1.54823479e-04
9.40000000e-01	3.51164521e-03	1.55268439e-04
9.45000000e-01	3.49467341e-03	1.50537246e-04
9.50000000e-01	3.52133541e-03	1.49575196e-04
9.55000000e-01	3.53581458e-03	1.47446609e-04
9.60000000e-01	3.53172521e-03	1.47394972e-04
9.65000000e-01	3.55088820e-03	1.45721568e-04
9.70000000e-01	3.58669903e-03	1.44714900e-04
9.75000000e-01	3.59197637e-03	1.43259432e-04
9.80000000e-01	3.57575300e-03	1.41529219e-04
9.85000000e-01	3.59337192e-03	1.42323040e-04
9.90000000e-01	3.61748720e-03	1.38933010e-04
9.95000000e-01	3.62769770e-03	1.38570363e-04
1.00000000e+00	3.62048101e-03	1.37687914e-04
1.00500000e+00	3.60867591e-03	1.37226437e-04
1.01000000e+00	3.63432079e-03	1.35213086e-04
1.01500000e+00	3.65772200e-03	1.34811252e-04
1.02000000e+00	3.66947078e-03	1.35166070e-04
1.02500000e+00	3.64849261e-03	1.32630951e-04
1.03000000e+00	3.67816500e-03	1.33210457e-04
1.03500000e+00	3.65765809e-03	1.30695786e-04
1.04000000e+00	3.66595164e-03	1.30008077e-04
1.04500000e+00	3.65148523e-03	1.29586289e-04
1.05000000e+00	3.65019862e-03	1.28635600e-04
1.05500000e+00	3.65900606e-03	1.26887445e-04
1.06000000e+00	3.65471322e-03	1.26498281e-04
1.06500000e+00	3.70091205e-03	1.28038997e-04
1.07000000e+00	3.70217862e-03	1.27995030e-04
1.07500000e+00	3.72148018e-03	1.27652491e-04
1.08000000e+00	3.73694467e-03	1.27495040e-04
1.08500000e+00	3.70623552e-03	1.26599737e-04
1.09000000e+00	3.75127896e-03	1.28779138e-04
1.09500000e+00	3.76025433e-03	1.26597958e-04
1.10000000e+00	3.82250300e-03	1.29490067e-04
1.10500000e+00	3.78361890e-03	1.28561217e-04
1.11000000e+00	3.80270665e-03	1.29388947e-04
1.11500000e+00	3.82707709e-03	1.29323712e-04
1.12000000e+00	3.84437061e-03	1.30390164e-04
1.12500000e+00	3.84539388e-03	1.30198399e-04
1.13000000e+00	3.86050920e-03	1.32345802e-04
1.13500000e+00	3.87236641e-03	1.31065261e-04
1.14000000e+00	3.89617348e-03	1.31704278e-04
1.14500000e+00	3.91042728e-03	1.33343312e-04
1.15000000e+00	3.93040201e-03	1.34532106e-04
1.15500000e+00	3.93414860e-03	1.33316831e-04
1.16000000e+00	3.97866211e-03	1.35268297e-04
1.16500000e+00	3.96500982e-03	1.34609603e-04
1.17000000e+00	3.99699063e-03	1.37433499e-04
1.17500000e+00	4.00634900e-03	1.35797345e-04
1.18000000e+00	4.00950501e-03	1.36479778e-04
1.18500000e+00	4.01462186e-03	1.36568722e-04
1.19000000e+00	4.04873291e-03	1.39231840e-04
1.19500000e+00	4.07277807e-03	1.38331102e-04
1.20000000e+00	4.07626717e-03	1.39154582e-04
1.20500000e+00	4.07550658e-03	1.38940045e-04
1.21000000e+00	4.08855148e-03	1.41267327e-04
1.21500000e+00	4.11076975e-03	1.39773161e-04
1.22000000e+00	4.10933584e-03	1.39859015e-04
1.22500000e+00	4.13532791e-03	1.41237575e-04
1.23000000e+00	4.13381450e-03	1.42254156e-04
1.23500000e+00	4.16140963e-03	1.42324125e-04
1.24000000e+00	4.22293974e-03	1.43739477e-04
1.24500000e+00	4.20891390e-03	1.44356101e-04
1.25000000e+00	4.18381114e-03	1.44297305e-04
1.25500000e+00	4.19022621e-03	1.42876202e-04
1.26000000e+00	4.19450574e-03	1.43906784e-04
1.26500000e+00	4.21825872e-03	1.44112242e-04
1.27000000e+00	4.25723917e-03	1.47556449e-04
1.27500000e+00	4.24736964e-03	1.45747469e-04
1.28000000e+00	4.28369233e-03	1.46104072e-04
1.28500000e+00	4.27614843e-03	1.46658698e-04
1.29000000e+00	4.30477874e-03	1.49023590e-04
1.29500000e+00	4.26705196e-03	1.46137999e-04
1.30000000e+00	4.32498323e-03	1.47849064e-04
1.30500000e+00	4.31399672e-03	1.48134409e-04
1.31000000e+00	4.30923032e-03	1.49709606e-04
1.31500000e+00	4.31797923e-03	1.48162567e-04
1.32000000e+00	4.35001437e-03	1.49096132e-04
1.32500000e+00	4.34507457e-03	1.49319194e-04
1.33000000e+00	4.33964081e-03	1.50941878e-04
1.33500000e+00	4.37737350e-03	1.50236607e-04
1.34000000e+00	4.36674118e-03	1.49981484e-04
1.34500000e+00	4.35783117e-03	1.50205749e-04
1.35000000e+00	4.38315353e-03	1.52586144e-04
1.35500000e+00	4.36012572e-03	1.49685184e-04
1.36000000e+00	4.37672682e-03	1.50053272e-04
1.36500000e+00	4.37527794e-03	1.50483121e-04
1.37000000e+00	4.41413128e-03	1.53954188e-04
1.37500000e+00	4.41682268e-03	1.51747671e-04
1.38000000e+00	4.39118348e-03	1.51316821e-04
1.38500000e+00	4.42588091e-03	1.53253201e-04
1.39000000e+00	4.42452680e-03	1.54211825e-04
1.39500000e+00	4.40454406e-03	1.51240237e-04
1.40000000e+00	4.50659845e-03	1.59423758e-04
1.40500000e+00	4.40374070e-03	1.67783726e-04
1.41000000e+00	4.40917876e-03	1.75747651e-04
1.41500000e+00	4.41856958e-03	1.82688161e-04
1.42000000e+00	4.38619565e-03	1.88504843e-04
1.42500000e+00	4.43485875e-03	1.96281218e-04
1.43000000e+00	4.38219015e-03	2.01252292e-04
1.43500000e+00	4.39155475e-03	2.07945764e-04
1.44000000e+00	4.34025378e-03	2.13391862e-04
1.44500000e+00	4.36726102e-03	2.20272634e-04
1.45000000e+00	4.45089060e-03	2.17125843e-04
1.45500000e+00	4.48235387e-03	1.96302723e-04
1.46000000e+00	4.46750329e-03	1.91210896e-04
1.46500000e+00	4.46477059e-03	1.87663808e-04
1.47000000e+00	4.45752495e-03	1.87060444e-04
1.47500000e+00	4.45975071e-03	1.81541405e-04
1.48000000e+00	4.48756786e-03	1.80779638e-04
1.48500000e+00	4.48415900e-03	1.80768004e-04
1.49000000e+00	4.46733833e-03	1.80687480e-04
1.49500000e+00	4.50465829e-03	1.78026323e-04
1.50000000e+00	4.48300013e-03	1.76649601e-04
1.50500000e+00	4.55269322e-03	1.80344251e-04
1.51000000e+00	4.58846223e-03	1.82179122e-04
1.51500000e+00	4.69700499e-03	1.83435504e-04
1.52000000e+00	4.75777847e-03	1.85379726e-04
1.52500000e+00	4.74504626e-03	1.84550663e-04
1.53000000e+00	4.65282480e-03	1.82071884e-04
1.53500000e+00	4.58266010e-03	1.74241156e-04
1.54000000e+00	4.51336300e-03	1.71355788e-04
1.54500000e+00	4.50781255e-03	1.70819159e-04
1.55000000e+00	4.47291832e-03	1.68963031e-04
1.55500000e+00	4.48079477e-03	1.65544718e-04
1.56000000e+00	4.45231082e-03	1.64798009e-04
1.56500000e+00	4.45322104e-03	1.64047400e-04
1.57000000e+00	4.44337101e-03	1.62360427e-04
1.57500000e+00	4.42790655e-03	1.58880200e-04
1.58000000e+00	4.44043018e-03	1.58900250e-04
1.58500000e+00	4.42744784e-03	1.58510597e-04
1.59000000e+00	4.43907591e-03	1.59019232e-04
1.59500000e+00	4.41734819e-03	1.55207484e-04
1.60000000e+00	4.38466817e-03	1.53946855e-04
1.60500000e+00	4.37473689e-03	1.53731999e-04
1.61000000e+00	4.37325285e-03	1.53052243e-04
1.61500000e+00	4.37748443e-03	1.51787407e-04
1.62000000e+00	4.39070191e-03	1.52814971e-04
1.62500000e+00	4.37812960e-03	1.54252076e-04
1.63000000e+00	4.32932299e-03	1.50842480e-04
1.63500000e+00	4.32996827e-03	1.50832800e-04
1.64000000e+00	4.36043254e-03	1.52055410e-04
1.64500000e+00	4.31832566e-03	1.52259664e-04
1.65000000e+00	4.31409941e-03	1.50424462e-04
1.65500000e+00	4.30009381e-03	1.49792121e-04
1.66000000e+00	4.29013751e-03	1.49469603e-04
1.66500000e+00	4.28476611e-03	1.51849095e-04
1.67000000e+00	4.30329016e-03	1.49383677e-04
1.67500000e+00	4.28559726e-03	1.49194953e-04
1.68000000e+00	4.29153442e-03	1.49771846e-04
1.68500000e+00	4.28576113e-03	1.52116980e-04
1.69000000e+00	4.28816797e-03	1.49287249e-04
1.69500000e+00	4.26808702e-03	1.48278978e-04
1.70000000e+00	4.23462854e-03	1.48814150e-04
1.70500000e+00	4.24846128e-03	1.49950007e-04
1.71000000e+00	4.22824897e-03	1.47376885e-04
1.71500000e+00	4.21296740e-03	1.46663014e-04
1.72000000e+00	4.21906577e-03	1.48131045e-04
1.72500000e+00	4.18829801e-03	1.47874595e-04
1.73000000e+00	4.17833126e-03	1.45664930e-04
1.73500000e+00	4.19017894e-03	1.46430694e-04
1.74000000e+00	4.15502468e-03	1.45518302e-04
1.74500000e+00	4.13317975e-03	1.46502232e-04
1.75000000e+00	4.15291872e-03	1.44446372e-04
1.75500000e+00	4.14337869e-03	1.44985736e-04
1.76000000e+00	4.14157797e-03	1.44791653e-04
1.76500000e+00	4.13491941e-03	1.46480278e-04
1.77000000e+00	4.08409847e-03	1.42299672e-04
1.77500000e+00	4.10700253e-03	1.43431425e-04
1.78000000e+00	4.10008870e-03	1.43717507e-04
1.78500000e+00	4.09788750e-03	1.45091245e-04
1.79000000e+00	4.08311295e-03	1.42144717e-04
1.79500000e+00	4.06400262e-03	1.41942774e-04
1.80000000e+00	4.09076068e-03	1.43688411e-04
1.80500000e+00	4.06800175e-03	1.43741523e-04
1.81000000e+00	4.08785811e-03	1.42352531e-04
1.81500000e+00	4.03102359e-03	1.40560677e-04
1.82000000e+00	4.04709291e-03	1.41982704e-04
1.82500000e+00	4.04365357e-03	1.42887328e-04
1.83000000e+00	4.03195547e-03	1.40554537e-04
1.83500000e+00	4.01484796e-03	1.40156377e-04
1.84000000e+00	4.02634707e-03	1.41313365e-04
1.84500000e+00	4.01445414e-03	1.41797909e-04
1.85000000e+00	4.00596938e-03	1.39840436e-04
1.85500000e+00	3.98589923e-03	1.39158276e-04
1.86000000e+00	3.96406914e-03	1.39354194e-04
1.86500000e+00	3.98088485e-03	1.40264825e-04
1.87000000e+00	3.96054238e-03	1.38143363e-04
1.87500000e+00	3.91564672e-03	1.36964383e-04
1.88000000e+00	3.89532861e-03	1.36855203e-04
1.88500000e+00	3.91507631e-03	1.38412689e-04
1.89000000e+00	3.87719220e-03	1.35079510e-04
1.89500000e+00	3.88185495e-03	1.36000018e-04
1.90000000e+00	3.87037485e-03	1.35975376e-04
1.90500000e+00	3.82624566e-03	1.34475975e-04
1.91000000e+00	3.83482996e-03	1.33852721e-04
1.91500000e+00	3.80207759e-03	1.32924645e-04
1.92000000e+00	3.79906292e-03	1.33555947e-04
1.92500000e+00	3.79165600e-03	1.33353826e-04
1.93000000e+00	3.73125025e-03	1.30083321e-04
1.93500000e+00	3.74588895e-03	1.31015367e-04
1.94000000e+00	3.74749386e-03	1.32108554e-04
1.94500000e+00	3.72099251e-03	1.30749822e-04
1.95000000e+00	3.70608495e-03	1.29087610e-04
1.95500000e+00	3.70841049e-03	1.29696722e-04
1.96000000e+00	3.67849343e-03	1.29519882e-04
1.96500000e+00	3.66074865e-03	1.28890982e-04
1.97000000e+00	3.67590953e-03	1.27868894e-04
1.97500000e+00	3.61845808e-03	1.26719785e-04
1.98000000e+00	3.63815901e-03	1.27943866e-04
1.98500000e+00	3.63232399e-03	1.27933335e-04
1.99000000e+00	3.64619893e-03	1.26845583e-04
1.99500000e+00	3.58944049e-03	1.25438839e-04
2.00000000e+00	3.59805179e-03	1.26561597e-04
2.00500000e+00	3.65517030e-03	1.28895007e-04
2.01000000e+00	3.59479463e-03	1.39184646e-04
2.01500000e+00	3.54366798e-03	1.45666103e-04
2.02000000e+00	3.52790917e-03	1.54550494e-04
2.02500000e+00	3.53737780e-03	1.61130752e-04
2.03000000e+00	3.49814533e-03	1.68763886e-04
2.03500000e+00	3.50938178e-03	1.76611529e-04
2.04000000e+00	3.52130843e-03	1.85094496e-04
2.04500000e+00	3.49541546e-03	1.93339261e-04
2.05000000e+00	3.49100482e-03	2.03075645e-04
2.05500000e+00	3.50580300e-03	1.99567659e-04
2.06000000e+00	3.52643660e-03	1.74681904e-04
2.06500000e+00	3.50135251e-03	1.65733019e-04
2.07000000e+00	3.50058298e-03	1.57032072e-04
2.07500000e+00	3.44793991e-03	1.51183920e-04
2.08000000e+00	3.48361544e-03	1.52492738e-04
2.08500000e+00	3.48641150e-03	1.51213935e-04
2.09000000e+00	3.42984123e-03	1.44419018e-04
2.09500000e+00	3.42890812e-03	1.42945347e-04
2.10000000e+00	3.41021938e-03	1.41119821e-04
2.10500000e+00	3.41658913e-03	1.40925193e-04
2.11000000e+00	3.40837743e-03	1.35472057e-04
2.11500000e+00	3.34821159e-03	1.31812661e-04
2.12000000e+00	3.35327366e-03	1.31211694e-04
2.12500000e+00	3.33107964e-03	1.30028281e-04
2.13000000e+00	3.32314793e-03	1.24340312e-04
2.13500000e+00	3.28452074e-03	1.21436004e-04
2.14000000e+00	3.26478867e-03	1.19607002e-04
2.14500000e+00	3.24977782e-03	1.19284206e-04
2.15000000e+00	3.26194740e-03	1.15914022e-04
2.15500000e+00	3.26295668e-03	1.16129365e-04
2.16000000e+00	3.22424891e-03	1.14121798e-04
2.16500000e+00	3.19912710e-03	1.14084157e-04
2.17000000e+00	3.19192096e-03	1.11053770e-04
2.17500000e+00	3.16356884e-03	1.10355361e-04
2.18000000e+00	3.17077989e-03	1.10859030e-04
2.18500000e+00	3.16911155e-03	1.11386375e-04
2.19000000e+00	3.13266641e-03	1.09784710e-04
2.19500000e+00	3.14146078e-03	1.09506121e-04
2.20000000e+00	3.09318704e-03	1.08017621e-04
2.20500000e+00	3.11726741e-03	1.09288936e-04
2.21000000e+00	3.08550058e-03	1.08676427e-04
2.21500000e+00	3.07765581e-03	1.07230366e-04
2.22000000e+00	3.05903456e-03	1.06433507e-04
2.22500000e+00	3.03630983e-03	1.06565397e-04
2.23000000e+00	3.03021349e-03	1.06948741e-04
2.23500000e+00	3.00745721e-03	1.04661507e-04
2.24000000e+00	2.98392826e-03	1.03904411e-04
2.24500000e+00	2.99276416e-03	1.04961138e-04
2.25000000e+00	2.96786482e-03	1.04995113e-04
2.25500000e+00	2.96261693e-03	1.02920871e-04
2.26000000e+00	2.92448800e-03	1.01954753e-04
2.26500000e+00	2.92030192e-03	1.02146878e-04
2.27000000e+00	2.89062839e-03	1.02495607e-04
2.27500000e+00	2.86667679e-03	9.96443228e-05
2.28000000e+00	2.83084515e-03	9.83986558e-05
2.28500000e+00	2.83913163e-03	9.94387932e-05
2.29000000e+00	2.82389326e-03	9.94135036e-05
2.29500000e+00	2.79575760e-03	9.80297483e-05
2.30000000e+00	2.78557889e-03	9.67622082e-05
2.30500000e+00	2.78964370e-03	9.71719913e-05
2.31000000e+00	2.76674813e-03	9.69372868e-05
2.31500000e+00	2.75760849e-03	9.74472637e-05
2.32000000e+00	2.74036371e-03	9.48481383e-05
2.32500000e+00	2.72726527e-03	9.51398088e-05
2.33000000e+00	2.70302770e-03	9.45707610e-05
2.33500000e+00	2.69161138e-03	9.50708589e-05
2.34000000e+00	2.70463189e-03	9.38624542e-05
2.34500000e+00	2.69132664e-03	9.35357376e-05
2.35000000e+00	2.62979304e-03	9.17036500e-05
2.35500000e+00	2.62006884e-03	9.25444001e-05
2.36000000e+00	2.60767770e-03	9.09262669e-05
2.36500000e+00	2.59981908e-03	9.05620929e-05
2.37000000e+00	2.59822923e-03	9.04766328e-05
2.37500000e+00	2.57096678e-03	9.04050172e-05
2.38000000e+00	2.56160749e-03	9.05008522e-05
2.38500000e+00	2.55340720e-03	8.88901838e-05
2.39000000e+00	2.54187883e-03	8.87478589e-05
2.39500000e+00	2.52460698e-03	8.86399226e-05
2.40000000e+00	2.51718295e-03	8.97240766e-05
2.40500000e+00	2.53137878e-03	8.85095692e-05
2.41000000e+00	2.49082898e-03	8.73538149e-05
2.41500000e+00	2.47674917e-03	8.68327679e-05
2.42000000e+00	2.49365171e-03	8.86742909e-05
2.42500000e+00	2.45488580e-03	8.70580307e-05
2.43000000e+00	2.43464497e-03	8.55672998e-05
2.43500000e+00	2.41953315e-03	8.53229770e-05
2.44000000e+00	2.44969189e-03	8.66132036e-05
2.44500000e+00	2.39852389e-03	8.59325974e-05
2.45000000e+00	2.38684966e-03	8.40044198e-05
2.45500000e+00	2.38558683e-03	8.43578507e-05
2.46000000e+00	2.35534051e-03	8.35771723e-05
2.46500000e+00	2.35805675e-03	8.46636473e-05
2.47000000e+00	2.32555908e-03	8.27395634e-05
2.47500000e+00	2.32478743e-03	8.22464503e-05
2.48000000e+00	2.32057104e-03	8.28537297e-05
2.48500000e+00	2.30368827e-03	8.22632731e-05
2.49000000e+00	2.29262892e-03	8.29353172e-05
2.49500000e+00	2.29650986e-03	8.15663835e-05
2.50000000e+00	2.26390167e-03	8.06483927e-05
2.50500000e+00	2.26017287e-03	8.08406995e-05
2.51000000e+00	2.24454787e-03	8.09836386e-05
2.51500000e+00	2.24581436e-03	8.12133621e-05
2.52000000e+00	2.24483223e-03	8.03772975e-05
2.52500000e+00	2.23989401e-03	8.04929831e-05
2.53000000e+00	2.20703069e-03	8.01657915e-05
2.53500000e+00	2.22905073e-03	8.19476998e-05
2.54000000e+00	2.20432941e-03	7.96326814e-05
2.54500000e+00	2.20720630e-03	8.00363122e-05
2.55000000e+00	2.18707134e-03	7.97847969e-05
2.55500000e+00	2.19056187e-03	8.06132979e-05
2.56000000e+00	2.19297020e-03	8.10328399e-05
2.56500000e+00	2.17927967e-03	7.99442798e-05
2.57000000e+00	2.13756681e-03	7.87058470e-05
2.57500000e+00	2.15329374e-03	7.94435178e-05
2.58000000e+00	2.13172966e-03	7.99849766e-05
2.58500000e+00	2.13209147e-03	7.93898780e-05
2.59000000e+00	2.11363745e-03	7.83617655e-05
2.59500000e+00	2.12541836e-03	7.91324739e-05
2.60000000e+00	2.10734497e-03	7.90388094e-05
2.60500000e+00	2.12403272e-03	8.14749712e-05
2.61000000e+00	2.10485513e-03	9.19991074e-05
2.61500000e+00	2.05823417e-03	9.99973878e-05
2.62000000e+00	2.02320218e-03	1.08477030e-04
2.62500000e+00	1.98359278e-03	1.15541513e-04
2.63000000e+00	1.94880425e-03	1.25104040e-04
2.63500000e+00	2.05547833e-03	1.45695355e-04
2.64000000e+00	2.12602819e-03	1.64420202e-04
2.64500000e+00	2.12076580e-03	1.74996567e-04
2.65000000e+00	2.10915227e-03	1.84082340e-04
2.65500000e+00	2.13593059e-03	2.00363890e-04
2.66000000e+00	2.11701346e-03	2.12637891e-04
2.66500000e+00	2.09883209e-03	2.36996795e-04
2.67000000e+00	2.13157796e-03	2.61269952e-04
2.67500000e+00	2.09161766e-03	2.98822007e-04
2.68000000e+00	2.02894949e-03	3.38048875e-04
2.68500000e+00	1.94468046e-03	4.29688221e-04
2.69000000e+00	1.82988529e-03	6.58561877e-04
2.69500000e+00	0.00000000e+00	0.00000000e+00
2.70000000e+00	0.00000000e+00	0.00000000e+00
