% Filename : WDL7c_00026_00010.h5
% Date & Time : 30-Oct-2025 17:01:23
% X-ray Energy (keV) : 13.30001
% Exposure Time (s) : 0.500
% Photodiode Value : 141389.000
% I0 of Sample : 0
% I0 of Standard : 1
% 
% q(A^-1)   I(q)    I(q)_SE
8.40000000e-01	0.00000000e+00	0.00000000e+00
8.45000000e-01	2.99348280e-03	5.24186699e-04
8.50000000e-01	2.73758727e-03	2.54253749e-04
8.55000000e-01	2.76073578e-03	2.25905400e-04
8.60000000e-01	2.68717811e-03	1.90035363e-04
8.65000000e-01	2.74284025e-03	1.78726987e-04
8.70000000e-01	2.73033567e-03	1.69601921e-04
8.75000000e-01	2.72537728e-03	1.62842032e-04
8.80000000e-01	2.76718245e-03	1.59957658e-04
8.85000000e-01	2.78028236e-03	1.51877964e-04
8.90000000e-01	2.77618665e-03	1.48277454e-04
8.95000000e-01	2.78047198e-03	1.44564025e-04
9.00000000e-01	2.79795666e-03	1.44120132e-04
9.05000000e-01	2.78266540e-03	1.36933366e-04
9.10000000e-01	2.80889117e-03	1.35779280e-04
9.15000000e-01	2.82385994e-03	1.34278398e-04
9.20000000e-01	2.80122715e-03	1.32960308e-04
9.25000000e-01	2.80738042e-03	1.27579470e-04
9.30000000e-01	2.81596735e-03	1.26654335e-04
9.35000000e-01	2.83310001e-03	1.24943772e-04
9.40000000e-01	2.82142180e-03	1.25030621e-04
9.45000000e-01	2.84977618e-03	1.23011784e-04
9.50000000e-01	2.86136678e-03	1.21654576e-04
9.55000000e-01	2.84581149e-03	1.18837873e-04
9.60000000e-01	2.86049895e-03	1.19591128e-04
9.65000000e-01	2.84742781e-03	1.17026083e-04
9.70000000e-01	2.88441636e-03	1.16639942e-04
9.75000000e-01	2.89522315e-03	1.15748032e-04
9.80000000e-01	2.90125760e-03	1.14926619e-04
9.85000000e-01	2.88472911e-03	1.14416733e-04
9.90000000e-01	2.89228745e-03	1.11256388e-04
9.95000000e-01	2.90677591e-03	1.11351400e-04
1.00000000e+00	2.90850645e-03	1.10763213e-04
1.00500000e+00	2.86626206e-03	1.09286861e-04
1.01000000e+00	2.90543229e-03	1.08382458e-04
1.01500000e+00	2.91102194e-03	1.07566391e-04
1.02000000e+00	2.88867144e-03	1.06641461e-04
1.02500000e+00	2.89803937e-03	1.05818705e-04
1.03000000e+00	2.86897839e-03	1.04388983e-04
1.03500000e+00	2.89916706e-03	1.03897279e-04
1.04000000e+00	2.88290739e-03	1.02763407e-04
1.04500000e+00	2.87077736e-03	1.02271719e-04
1.05000000e+00	2.87509734e-03	1.01852925e-04
1.05500000e+00	2.87996549e-03	1.00415588e-04
1.06000000e+00	2.88551807e-03	1.00341486e-04
1.06500000e+00	2.91390036e-03	1.01464929e-04
1.07000000e+00	2.88809378e-03	1.00385356e-04
1.07500000e+00	2.90807958e-03	1.00350064e-04
1.08000000e+00	2.90290666e-03	9.95358943e-05
1.08500000e+00	2.90394616e-03	9.96150565e-05
1.09000000e+00	2.91504758e-03	1.00540301e-04
1.09500000e+00	2.93486011e-03	9.93061162e-05
1.10000000e+00	2.95065040e-03	1.00496830e-04
1.10500000e+00	2.94704724e-03	1.00621330e-04
1.11000000e+00	2.94498964e-03	1.00677912e-04
1.11500000e+00	2.95994332e-03	1.00474833e-04
1.12000000e+00	2.95954356e-03	1.00865501e-04
1.12500000e+00	2.97631269e-03	1.01189736e-04
1.13000000e+00	2.98597869e-03	1.02729801e-04
1.13500000e+00	2.99285102e-03	1.01650959e-04
1.14000000e+00	3.00023757e-03	1.01725037e-04
1.14500000e+00	3.00769204e-03	1.02834494e-04
1.15000000e+00	3.01931572e-03	1.03764289e-04
1.15500000e+00	3.04558317e-03	1.03551984e-04
1.16000000e+00	3.03312837e-03	1.03518967e-04
1.16500000e+00	3.04876637e-03	1.03887551e-04
1.17000000e+00	3.05786248e-03	1.05477512e-04
1.17500000e+00	3.07419851e-03	1.04548958e-04
1.18000000e+00	3.04883378e-03	1.04190738e-04
1.18500000e+00	3.07284666e-03	1.04853093e-04
1.19000000e+00	3.06641906e-03	1.05800252e-04
1.19500000e+00	3.08349283e-03	1.05066277e-04
1.20000000e+00	3.08908735e-03	1.05834112e-04
1.20500000e+00	3.10087528e-03	1.06028136e-04
1.21000000e+00	3.09453270e-03	1.07215699e-04
1.21500000e+00	3.08118849e-03	1.05055543e-04
1.22000000e+00	3.12021222e-03	1.06455847e-04
1.22500000e+00	3.12436677e-03	1.07019011e-04
1.23000000e+00	3.10981041e-03	1.07420898e-04
1.23500000e+00	3.11855965e-03	1.07060904e-04
1.24000000e+00	3.12104601e-03	1.06476994e-04
1.24500000e+00	3.13867299e-03	1.07994081e-04
1.25000000e+00	3.14043282e-03	1.08665789e-04
1.25500000e+00	3.13317634e-03	1.07082665e-04
1.26000000e+00	3.14216364e-03	1.08041377e-04
1.26500000e+00	3.15668584e-03	1.08150783e-04
1.27000000e+00	3.14980629e-03	1.09461361e-04
1.27500000e+00	3.15658957e-03	1.08627839e-04
1.28000000e+00	3.17567791e-03	1.08630618e-04
1.28500000e+00	3.14205086e-03	1.08055853e-04
1.29000000e+00	3.15666302e-03	1.09449010e-04
1.29500000e+00	3.17287814e-03	1.08937231e-04
1.30000000e+00	3.14893745e-03	1.07906481e-04
1.30500000e+00	3.17858384e-03	1.09448266e-04
1.31000000e+00	3.17745520e-03	1.10699772e-04
1.31500000e+00	3.16581183e-03	1.08983202e-04
1.32000000e+00	3.18565588e-03	1.09439296e-04
1.32500000e+00	3.15763220e-03	1.08843205e-04
1.33000000e+00	3.17053416e-03	1.10575639e-04
1.33500000e+00	3.17580646e-03	1.09203893e-04
1.34000000e+00	3.16031725e-03	1.08754150e-04
1.34500000e+00	3.15082872e-03	1.08883126e-04
1.35000000e+00	3.17128618e-03	1.10614130e-04
1.35500000e+00	3.18598374e-03	1.09632961e-04
1.36000000e+00	3.17018828e-03	1.08920287e-04
1.36500000e+00	3.18444968e-03	1.09768297e-04
1.37000000e+00	3.16267873e-03	1.10608339e-04
1.37500000e+00	3.15631090e-03	1.08731926e-04
1.38000000e+00	3.17095269e-03	1.09501413e-04
1.38500000e+00	3.16387222e-03	1.09817599e-04
1.39000000e+00	3.16131720e-03	1.10454575e-04
1.39500000e+00	3.17620819e-03	1.09326141e-04
1.40000000e+00	3.20109401e-03	1.13444783e-04
1.40500000e+00	3.14719833e-03	1.20145311e-04
1.41000000e+00	3.14379297e-03	1.25632335e-04
1.41500000e+00	3.13959479e-03	1.30059288e-04
1.42000000e+00	3.12482888e-03	1.34606285e-04
1.42500000e+00	3.06830358e-03	1.36247117e-04
1.43000000e+00	3.11275371e-03	1.43270410e-04
1.43500000e+00	3.08769138e-03	1.46550006e-04
1.44000000e+00	3.05379204e-03	1.50644443e-04
1.44500000e+00	3.05621323e-03	1.54600551e-04
1.45000000e+00	3.12483671e-03	1.52956828e-04
1.45500000e+00	3.17620189e-03	1.39655508e-04
1.46000000e+00	3.11438168e-03	1.33555567e-04
1.46500000e+00	3.13507295e-03	1.32182721e-04
1.47000000e+00	3.11926004e-03	1.31258689e-04
1.47500000e+00	3.12746187e-03	1.27634832e-04
1.48000000e+00	3.13828819e-03	1.26744397e-04
1.48500000e+00	3.15753925e-03	1.27637037e-04
1.49000000e+00	3.16422382e-03	1.28236784e-04
1.49500000e+00	3.12781431e-03	1.23886835e-04
1.50000000e+00	3.15441068e-03	1.24621847e-04
1.50500000e+00	3.15293039e-03	1.25177347e-04
1.51000000e+00	3.14841838e-03	1.25345886e-04
1.51500000e+00	3.19064212e-03	1.24909217e-04
1.52000000e+00	3.21167008e-03	1.25274970e-04
1.52500000e+00	3.20417797e-03	1.24925243e-04
1.53000000e+00	3.16695645e-03	1.24126993e-04
1.53500000e+00	3.17036409e-03	1.20666833e-04
1.54000000e+00	3.13886970e-03	1.19444995e-04
1.54500000e+00	3.13587510e-03	1.18910883e-04
1.55000000e+00	3.10689570e-03	1.17601345e-04
1.55500000e+00	3.09822904e-03	1.14646906e-04
1.56000000e+00	3.13002465e-03	1.16056004e-04
1.56500000e+00	3.08731724e-03	1.13862155e-04
1.57000000e+00	3.05913079e-03	1.12055044e-04
1.57500000e+00	3.06131373e-03	1.10036978e-04
1.58000000e+00	3.05481273e-03	1.09619645e-04
1.58500000e+00	3.01964194e-03	1.08403162e-04
1.59000000e+00	3.05050324e-03	1.09452987e-04
1.59500000e+00	3.03272452e-03	1.06843918e-04
1.60000000e+00	3.03825331e-03	1.06858446e-04
1.60500000e+00	3.01560888e-03	1.06201655e-04
1.61000000e+00	3.00322995e-03	1.05323042e-04
1.61500000e+00	3.00254796e-03	1.04360357e-04
1.62000000e+00	3.00279301e-03	1.04775114e-04
1.62500000e+00	2.98412106e-03	1.05364190e-04
1.63000000e+00	2.98257393e-03	1.04116754e-04
1.63500000e+00	2.98994801e-03	1.04377640e-04
1.64000000e+00	2.97511532e-03	1.04013848e-04
1.64500000e+00	2.97517913e-03	1.05143518e-04
1.65000000e+00	2.96524695e-03	1.03635757e-04
1.65500000e+00	2.95047217e-03	1.02968965e-04
1.66000000e+00	2.96950045e-03	1.03756901e-04
1.66500000e+00	2.94912055e-03	1.04781582e-04
1.67000000e+00	2.93155098e-03	1.01993516e-04
1.67500000e+00	2.95978881e-03	1.03232893e-04
1.68000000e+00	2.93313491e-03	1.02563105e-04
1.68500000e+00	2.93716102e-03	1.04497133e-04
1.69000000e+00	2.91434146e-03	1.01635910e-04
1.69500000e+00	2.91164400e-03	1.01413122e-04
1.70000000e+00	2.90908889e-03	1.02422430e-04
1.70500000e+00	2.86070734e-03	1.01138684e-04
1.71000000e+00	2.92241873e-03	1.02027985e-04
1.71500000e+00	2.86164598e-03	9.99081892e-05
1.72000000e+00	2.86940375e-03	1.00972440e-04
1.72500000e+00	2.86839847e-03	1.01467471e-04
1.73000000e+00	2.87158487e-03	1.00241277e-04
1.73500000e+00	2.85402811e-03	9.99763690e-05
1.74000000e+00	2.86008733e-03	1.00388811e-04
1.74500000e+00	2.84612921e-03	1.01093932e-04
1.75000000e+00	2.85602708e-03	9.95182230e-05
1.75500000e+00	2.82683858e-03	9.91539656e-05
1.76000000e+00	2.83942484e-03	9.95393463e-05
1.76500000e+00	2.83559336e-03	1.00636114e-04
1.77000000e+00	2.79369627e-03	9.75052230e-05
1.77500000e+00	2.80192929e-03	9.81277288e-05
1.78000000e+00	2.81557263e-03	9.87963943e-05
1.78500000e+00	2.78340877e-03	9.87959846e-05
1.79000000e+00	2.78557360e-03	9.71585428e-05
1.79500000e+00	2.79016869e-03	9.76189174e-05
1.80000000e+00	2.77745206e-03	9.78150590e-05
1.80500000e+00	2.73521836e-03	9.69401311e-05
1.81000000e+00	2.76558072e-03	9.65192701e-05
1.81500000e+00	2.74143008e-03	9.57051234e-05
1.82000000e+00	2.73616236e-03	9.62256087e-05
1.82500000e+00	2.75393121e-03	9.74329217e-05
1.83000000e+00	2.71795202e-03	9.49685306e-05
1.83500000e+00	2.71990267e-03	9.51739565e-05
1.84000000e+00	2.68706622e-03	9.45129476e-05
1.84500000e+00	2.70578499e-03	9.57734387e-05
1.85000000e+00	2.69248473e-03	9.41902539e-05
1.85500000e+00	2.68514350e-03	9.39719200e-05
1.86000000e+00	2.67117472e-03	9.41864943e-05
1.86500000e+00	2.67061724e-03	9.43481143e-05
1.87000000e+00	2.69833237e-03	9.42979668e-05
1.87500000e+00	2.65582719e-03	9.30568108e-05
1.88000000e+00	2.63990023e-03	9.29191197e-05
1.88500000e+00	2.64401813e-03	9.36747838e-05
1.89000000e+00	2.65751679e-03	9.27762626e-05
1.89500000e+00	2.63079516e-03	9.23646182e-05
1.90000000e+00	2.60704128e-03	9.18752796e-05
1.90500000e+00	2.61427315e-03	9.20735297e-05
1.91000000e+00	2.59390184e-03	9.08112945e-05
1.91500000e+00	2.61777112e-03	9.16834700e-05
1.92000000e+00	2.57071898e-03	9.06048387e-05
1.92500000e+00	2.56661722e-03	9.05325040e-05
1.93000000e+00	2.55626336e-03	8.94093876e-05
1.93500000e+00	2.54966916e-03	8.93915609e-05
1.94000000e+00	2.55810464e-03	9.04624275e-05
1.94500000e+00	2.52290710e-03	8.88770087e-05
1.95000000e+00	2.52120105e-03	8.79773168e-05
1.95500000e+00	2.52967813e-03	8.87323221e-05
1.96000000e+00	2.53804070e-03	8.94990623e-05
1.96500000e+00	2.51269527e-03	8.86096626e-05
1.97000000e+00	2.49839143e-03	8.71553588e-05
1.97500000e+00	2.49813574e-03	8.76748330e-05
1.98000000e+00	2.47371816e-03	8.72269774e-05
1.98500000e+00	2.47478140e-03	8.73991052e-05
1.99000000e+00	2.47656802e-03	8.63729714e-05
1.99500000e+00	2.48395313e-03	8.70730602e-05
2.00000000e+00	2.46170865e-03	8.68259601e-05
2.00500000e+00	2.46825634e-03	8.73045908e-05
2.01000000e+00	2.42650563e-03	9.42141429e-05
2.01500000e+00	2.42158860e-03	9.98000814e-05
2.02000000e+00	2.41086081e-03	1.05767534e-04
2.02500000e+00	2.42051750e-03	1.10464157e-04
2.03000000e+00	2.37865509e-03	1.15061603e-04
2.03500000e+00	2.38890735e-03	1.20730181e-04
2.04000000e+00	2.36394804e-03	1.24841374e-04
2.04500000e+00	2.32986544e-03	1.29389014e-04
2.05000000e+00	2.34741645e-03	1.36872663e-04
2.05500000e+00	2.36902968e-03	1.35516174e-04
2.06000000e+00	2.40391219e-03	1.19529578e-04
2.06500000e+00	2.36241379e-03	1.12231851e-04
2.07000000e+00	2.34288528e-03	1.05346897e-04
2.07500000e+00	2.32692432e-03	1.02346605e-04
2.08000000e+00	2.34434633e-03	1.02873259e-04
2.08500000e+00	2.32862168e-03	1.01172392e-04
2.09000000e+00	2.32226940e-03	9.80846905e-05
2.09500000e+00	2.32931711e-03	9.72835269e-05
2.10000000e+00	2.33904123e-03	9.70539376e-05
2.10500000e+00	2.31788761e-03	9.57597782e-05
2.11000000e+00	2.28447027e-03	9.09838270e-05
2.11500000e+00	2.26269135e-03	8.92414452e-05
2.12000000e+00	2.25882645e-03	8.86138361e-05
2.12500000e+00	2.21843904e-03	8.67519203e-05
2.13000000e+00	2.25354972e-03	8.45858689e-05
2.13500000e+00	2.23458929e-03	8.28575776e-05
2.14000000e+00	2.19990085e-03	8.08667240e-05
2.14500000e+00	2.20677130e-03	8.13158375e-05
2.15000000e+00	2.17559035e-03	7.74873211e-05
2.15500000e+00	2.16018704e-03	7.70924883e-05
2.16000000e+00	2.17042106e-03	7.70786370e-05
2.16500000e+00	2.15475161e-03	7.70821405e-05
2.17000000e+00	2.14116393e-03	7.46634691e-05
2.17500000e+00	2.16093947e-03	7.55614646e-05
2.18000000e+00	2.11443252e-03	7.41681615e-05
2.18500000e+00	2.11606372e-03	7.46308904e-05
2.19000000e+00	2.09948125e-03	7.38300158e-05
2.19500000e+00	2.11691624e-03	7.41143992e-05
2.20000000e+00	2.09355493e-03	7.33144602e-05
2.20500000e+00	2.08062829e-03	7.32009875e-05
2.21000000e+00	2.06547929e-03	7.29296963e-05
2.21500000e+00	2.05964914e-03	7.20434742e-05
2.22000000e+00	2.03274625e-03	7.10563409e-05
2.22500000e+00	2.02686904e-03	7.13977635e-05
2.23000000e+00	2.00584371e-03	7.10348983e-05
2.23500000e+00	2.01021683e-03	7.02125959e-05
2.24000000e+00	1.99909934e-03	6.98271072e-05
2.24500000e+00	1.98253003e-03	6.97353283e-05
2.25000000e+00	1.98141598e-03	7.03024143e-05
2.25500000e+00	1.96190193e-03	6.83459547e-05
2.26000000e+00	1.96078947e-03	6.85671295e-05
2.26500000e+00	1.92571344e-03	6.75870455e-05
2.27000000e+00	1.94181651e-03	6.91192996e-05
2.27500000e+00	1.92593398e-03	6.72210312e-05
2.28000000e+00	1.89581527e-03	6.61807893e-05
2.28500000e+00	1.88764451e-03	6.63047939e-05
2.29000000e+00	1.89245602e-03	6.68936187e-05
2.29500000e+00	1.88623005e-03	6.64285522e-05
2.30000000e+00	1.86349290e-03	6.50773277e-05
2.30500000e+00	1.83055347e-03	6.40303017e-05
2.31000000e+00	1.83016040e-03	6.43961337e-05
2.31500000e+00	1.82914222e-03	6.48065157e-05
2.32000000e+00	1.82471421e-03	6.33989075e-05
2.32500000e+00	1.78629905e-03	6.25399065e-05
2.33000000e+00	1.79411840e-03	6.29380862e-05
2.33500000e+00	1.77462802e-03	6.29422267e-05
2.34000000e+00	1.78037248e-03	6.20100362e-05
2.34500000e+00	1.77438765e-03	6.18599364e-05
2.35000000e+00	1.76832743e-03	6.18367833e-05
2.35500000e+00	1.73422593e-03	6.14502473e-05
2.36000000e+00	1.72679502e-03	6.03837162e-05
2.36500000e+00	1.71081574e-03	5.97576946e-05
2.37000000e+00	1.71265255e-03	5.98810248e-05
2.37500000e+00	1.69495002e-03	5.97511396e-05
2.38000000e+00	1.69861948e-03	6.01988702e-05
2.38500000e+00	1.68676089e-03	5.88586156e-05
2.39000000e+00	1.67750614e-03	5.87305643e-05
2.39500000e+00	1.66100820e-03	5.84930860e-05
2.40000000e+00	1.65813003e-03	5.91892470e-05
2.40500000e+00	1.65398841e-03	5.78920979e-05
2.41000000e+00	1.62740352e-03	5.71840496e-05
2.41500000e+00	1.62342287e-03	5.70481950e-05
2.42000000e+00	1.60884818e-03	5.73319960e-05
2.42500000e+00	1.59684123e-03	5.67550555e-05
2.43000000e+00	1.60832422e-03	5.66462398e-05
2.43500000e+00	1.58940605e-03	5.62077787e-05
2.44000000e+00	1.57163633e-03	5.56368490e-05
2.44500000e+00	1.55430186e-03	5.57716723e-05
2.45000000e+00	1.55413006e-03	5.47705205e-05
2.45500000e+00	1.54007742e-03	5.44859158e-05
2.46000000e+00	1.53261123e-03	5.44637922e-05
2.46500000e+00	1.52215235e-03	5.47177164e-05
2.47000000e+00	1.53251787e-03	5.45592474e-05
2.47500000e+00	1.50880219e-03	5.33707174e-05
2.48000000e+00	1.51168188e-03	5.39300885e-05
2.48500000e+00	1.50595306e-03	5.38052507e-05
2.49000000e+00	1.47163596e-03	5.33521399e-05
2.49500000e+00	1.49191289e-03	5.29232561e-05
2.50000000e+00	1.47225307e-03	5.24625637e-05
2.50500000e+00	1.46234690e-03	5.23429238e-05
2.51000000e+00	1.46326436e-03	5.27428653e-05
2.51500000e+00	1.44896478e-03	5.23155711e-05
2.52000000e+00	1.45187484e-03	5.19862247e-05
2.52500000e+00	1.43326131e-03	5.15299004e-05
2.53000000e+00	1.41720350e-03	5.14464725e-05
2.53500000e+00	1.42592491e-03	5.23581698e-05
2.54000000e+00	1.40010134e-03	5.05857032e-05
2.54500000e+00	1.39455229e-03	5.05984596e-05
2.55000000e+00	1.38949117e-03	5.06297909e-05
2.55500000e+00	1.38033707e-03	5.07860036e-05
2.56000000e+00	1.38881675e-03	5.12864190e-05
2.56500000e+00	1.37103723e-03	5.01641126e-05
2.57000000e+00	1.35824030e-03	5.00087926e-05
2.57500000e+00	1.34766495e-03	4.97194727e-05
2.58000000e+00	1.35326342e-03	5.07848846e-05
2.58500000e+00	1.35578100e-03	5.04069745e-05
2.59000000e+00	1.34017517e-03	4.96701453e-05
2.59500000e+00	1.33640414e-03	4.97324646e-05
2.60000000e+00	1.33472253e-03	5.01196981e-05
2.60500000e+00	1.34073740e-03	5.13977666e-05
2.61000000e+00	1.32833644e-03	5.79724645e-05
2.61500000e+00	1.31855597e-03	6.38408511e-05
2.62000000e+00	1.28829955e-03	6.84021430e-05
2.62500000e+00	1.26760869e-03	7.30320543e-05
2.63000000e+00	1.24761259e-03	7.93037608e-05
2.63500000e+00	1.30331763e-03	9.17364036e-05
2.64000000e+00	1.31032883e-03	1.01803298e-04
2.64500000e+00	1.29450803e-03	1.07305392e-04
2.65000000e+00	1.29448533e-03	1.13487609e-04
2.65500000e+00	1.28990976e-03	1.21743584e-04
2.66000000e+00	1.27743921e-03	1.28780999e-04
2.66500000e+00	1.27343373e-03	1.44267778e-04
2.67000000e+00	1.27603635e-03	1.56918953e-04
2.67500000e+00	1.23519596e-03	1.76644180e-04
2.68000000e+00	1.25652339e-03	2.09472765e-04
2.68500000e+00	1.25380453e-03	2.81636422e-04
2.69000000e+00	1.18258475e-03	4.22960633e-04
2.69500000e+00	0.00000000e+00	0.00000000e+00
2.70000000e+00	0.00000000e+00	0.00000000e+00
