% Filename : WDL7_00012_00076.h5
% Date & Time : 30-Oct-2025 14:50:38
% X-ray Energy (keV) : 13.30001
% Exposure Time (s) : 0.500
% Photodiode Value : 135403.000
% I0 of Sample : 0
% I0 of Standard : 1
% 
% q(A^-1)   I(q)    I(q)_SE
8.40000000e-01	0.00000000e+00	0.00000000e+00
8.45000000e-01	3.00870089e-03	5.29575236e-04
8.50000000e-01	2.92376439e-03	2.70782407e-04
8.55000000e-01	2.90874319e-03	2.37730490e-04
8.60000000e-01	2.90873227e-03	2.05738096e-04
8.65000000e-01	2.89887173e-03	1.88793685e-04
8.70000000e-01	2.87280345e-03	1.78407258e-04
8.75000000e-01	2.89438500e-03	1.73195125e-04
8.80000000e-01	2.89105234e-03	1.67135249e-04
8.85000000e-01	2.94773697e-03	1.61061692e-04
8.90000000e-01	2.94796801e-03	1.57744678e-04
8.95000000e-01	2.94480668e-03	1.52815259e-04
9.00000000e-01	2.98453176e-03	1.53464368e-04
9.05000000e-01	2.95248612e-03	1.45451822e-04
9.10000000e-01	2.98606940e-03	1.44035607e-04
9.15000000e-01	2.95646082e-03	1.40618396e-04
9.20000000e-01	3.02134709e-03	1.43508166e-04
9.25000000e-01	2.99225887e-03	1.35925723e-04
9.30000000e-01	3.01805821e-03	1.35774207e-04
9.35000000e-01	3.00932980e-03	1.32713310e-04
9.40000000e-01	3.01595531e-03	1.33437020e-04
9.45000000e-01	3.02248933e-03	1.30422837e-04
9.50000000e-01	3.04838399e-03	1.29508338e-04
9.55000000e-01	3.05601058e-03	1.27487783e-04
9.60000000e-01	3.05028750e-03	1.27491985e-04
9.65000000e-01	3.03844233e-03	1.24771124e-04
9.70000000e-01	3.07131671e-03	1.24126351e-04
9.75000000e-01	3.06326332e-03	1.22411073e-04
9.80000000e-01	3.08890196e-03	1.22451945e-04
9.85000000e-01	3.10523547e-03	1.23123921e-04
9.90000000e-01	3.10010218e-03	1.19182009e-04
9.95000000e-01	3.12087727e-03	1.19474802e-04
1.00000000e+00	3.10532573e-03	1.18217669e-04
1.00500000e+00	3.11776401e-03	1.18784088e-04
1.01000000e+00	3.11125917e-03	1.16019204e-04
1.01500000e+00	3.13357892e-03	1.15667229e-04
1.02000000e+00	3.10858342e-03	1.14630515e-04
1.02500000e+00	3.13041032e-03	1.14037681e-04
1.03000000e+00	3.11119883e-03	1.12939201e-04
1.03500000e+00	3.11281208e-03	1.11367685e-04
1.04000000e+00	3.11983520e-03	1.10914984e-04
1.04500000e+00	3.09405106e-03	1.09997241e-04
1.05000000e+00	3.11041445e-03	1.09911402e-04
1.05500000e+00	3.09075303e-03	1.07583750e-04
1.06000000e+00	3.09516385e-03	1.07362439e-04
1.06500000e+00	3.10828818e-03	1.07885037e-04
1.07000000e+00	3.13317623e-03	1.08592756e-04
1.07500000e+00	3.14151357e-03	1.08101551e-04
1.08000000e+00	3.13849317e-03	1.07298517e-04
1.08500000e+00	3.15386625e-03	1.08016559e-04
1.09000000e+00	3.17872516e-03	1.09405815e-04
1.09500000e+00	3.18503964e-03	1.07409176e-04
1.10000000e+00	3.19787469e-03	1.08672118e-04
1.10500000e+00	3.18974267e-03	1.08704855e-04
1.11000000e+00	3.19118710e-03	1.09038356e-04
1.11500000e+00	3.21221963e-03	1.08890810e-04
1.12000000e+00	3.25240475e-03	1.10548464e-04
1.12500000e+00	3.22716498e-03	1.09626465e-04
1.13000000e+00	3.25064965e-03	1.11675127e-04
1.13500000e+00	3.26347307e-03	1.10760129e-04
1.14000000e+00	3.26585228e-03	1.10654161e-04
1.14500000e+00	3.27664531e-03	1.11919414e-04
1.15000000e+00	3.27126104e-03	1.12338609e-04
1.15500000e+00	3.30478541e-03	1.12230074e-04
1.16000000e+00	3.28938576e-03	1.12174380e-04
1.16500000e+00	3.31956467e-03	1.13024866e-04
1.17000000e+00	3.31379743e-03	1.14223828e-04
1.17500000e+00	3.32918931e-03	1.13027482e-04
1.18000000e+00	3.32940498e-03	1.13632496e-04
1.18500000e+00	3.35777040e-03	1.14415124e-04
1.19000000e+00	3.37654435e-03	1.16267803e-04
1.19500000e+00	3.38020862e-03	1.15010693e-04
1.20000000e+00	3.37118434e-03	1.15355729e-04
1.20500000e+00	3.38377295e-03	1.15634055e-04
1.21000000e+00	3.39306383e-03	1.17454796e-04
1.21500000e+00	3.41714588e-03	1.16364185e-04
1.22000000e+00	3.40709240e-03	1.16166974e-04
1.22500000e+00	3.42747719e-03	1.17322386e-04
1.23000000e+00	3.42682059e-03	1.18147195e-04
1.23500000e+00	3.44117810e-03	1.17887563e-04
1.24000000e+00	3.44579878e-03	1.17501740e-04
1.24500000e+00	3.43613344e-03	1.18027095e-04
1.25000000e+00	3.44016883e-03	1.18922480e-04
1.25500000e+00	3.46742176e-03	1.18447788e-04
1.26000000e+00	3.46316413e-03	1.18937437e-04
1.26500000e+00	3.45745578e-03	1.18257479e-04
1.27000000e+00	3.45782940e-03	1.20120375e-04
1.27500000e+00	3.47551553e-03	1.19484684e-04
1.28000000e+00	3.47923114e-03	1.18860764e-04
1.28500000e+00	3.46548565e-03	1.19117266e-04
1.29000000e+00	3.48562505e-03	1.20801803e-04
1.29500000e+00	3.49398594e-03	1.19870018e-04
1.30000000e+00	3.49257818e-03	1.19569777e-04
1.30500000e+00	3.52070843e-03	1.21127269e-04
1.31000000e+00	3.51693728e-03	1.22371352e-04
1.31500000e+00	3.49449032e-03	1.20096609e-04
1.32000000e+00	3.51811722e-03	1.20777771e-04
1.32500000e+00	3.49740216e-03	1.20434289e-04
1.33000000e+00	3.51119207e-03	1.22279719e-04
1.33500000e+00	3.51516607e-03	1.20723441e-04
1.34000000e+00	3.53711276e-03	1.21674181e-04
1.34500000e+00	3.50273309e-03	1.20922218e-04
1.35000000e+00	3.51880819e-03	1.22662455e-04
1.35500000e+00	3.52668581e-03	1.21216981e-04
1.36000000e+00	3.53534634e-03	1.21400247e-04
1.36500000e+00	3.53067363e-03	1.21546593e-04
1.37000000e+00	3.52581817e-03	1.23215147e-04
1.37500000e+00	3.53551117e-03	1.21672496e-04
1.38000000e+00	3.54574396e-03	1.22341132e-04
1.38500000e+00	3.55075530e-03	1.23113073e-04
1.39000000e+00	3.51726213e-03	1.22859671e-04
1.39500000e+00	3.54461917e-03	1.21902111e-04
1.40000000e+00	3.60227078e-03	1.27630610e-04
1.40500000e+00	3.53196616e-03	1.34717840e-04
1.41000000e+00	3.52768148e-03	1.40826068e-04
1.41500000e+00	3.48760515e-03	1.44166001e-04
1.42000000e+00	3.50920362e-03	1.51136844e-04
1.42500000e+00	3.46385904e-03	1.53531187e-04
1.43000000e+00	3.50288297e-03	1.61133245e-04
1.43500000e+00	3.44155534e-03	1.63132823e-04
1.44000000e+00	3.46846043e-03	1.70756545e-04
1.44500000e+00	3.46054629e-03	1.74904589e-04
1.45000000e+00	3.49472753e-03	1.70637706e-04
1.45500000e+00	3.52561257e-03	1.54762628e-04
1.46000000e+00	3.55868502e-03	1.52398993e-04
1.46500000e+00	3.52732630e-03	1.48436523e-04
1.47000000e+00	3.53376537e-03	1.48524528e-04
1.47500000e+00	3.52834725e-03	1.43999185e-04
1.48000000e+00	3.55754889e-03	1.43566167e-04
1.48500000e+00	3.51640595e-03	1.42073035e-04
1.49000000e+00	3.51549715e-03	1.42465367e-04
1.49500000e+00	3.54518291e-03	1.40401636e-04
1.50000000e+00	3.55906721e-03	1.40476731e-04
1.50500000e+00	3.59038389e-03	1.42416608e-04
1.51000000e+00	3.60169869e-03	1.43154395e-04
1.51500000e+00	3.65304547e-03	1.42950166e-04
1.52000000e+00	3.69116675e-03	1.43910539e-04
1.52500000e+00	3.67402152e-03	1.43073526e-04
1.53000000e+00	3.64456255e-03	1.42797824e-04
1.53500000e+00	3.56631525e-03	1.35823860e-04
1.54000000e+00	3.59533657e-03	1.36701079e-04
1.54500000e+00	3.56214239e-03	1.35177772e-04
1.55000000e+00	3.52895009e-03	1.33467112e-04
1.55500000e+00	3.53189505e-03	1.30500866e-04
1.56000000e+00	3.50995565e-03	1.30081216e-04
1.56500000e+00	3.49139009e-03	1.28639254e-04
1.57000000e+00	3.48249893e-03	1.27497818e-04
1.57500000e+00	3.49171465e-03	1.25431576e-04
1.58000000e+00	3.46485077e-03	1.24237534e-04
1.58500000e+00	3.45212510e-03	1.23768554e-04
1.59000000e+00	3.44852188e-03	1.23718634e-04
1.59500000e+00	3.44675615e-03	1.21297658e-04
1.60000000e+00	3.45246031e-03	1.21394528e-04
1.60500000e+00	3.42406858e-03	1.20402909e-04
1.61000000e+00	3.42792084e-03	1.20061141e-04
1.61500000e+00	3.42519832e-03	1.19001090e-04
1.62000000e+00	3.42496069e-03	1.19458573e-04
1.62500000e+00	3.39879756e-03	1.19868039e-04
1.63000000e+00	3.40770568e-03	1.18865333e-04
1.63500000e+00	3.40412499e-03	1.18769688e-04
1.64000000e+00	3.35557121e-03	1.17141548e-04
1.64500000e+00	3.38332785e-03	1.19412975e-04
1.65000000e+00	3.36277570e-03	1.17401838e-04
1.65500000e+00	3.37735362e-03	1.17816870e-04
1.66000000e+00	3.36355261e-03	1.17405339e-04
1.66500000e+00	3.35141157e-03	1.18971237e-04
1.67000000e+00	3.37539420e-03	1.17299180e-04
1.67500000e+00	3.33062532e-03	1.16060488e-04
1.68000000e+00	3.32758431e-03	1.16422739e-04
1.68500000e+00	3.34244166e-03	1.18778204e-04
1.69000000e+00	3.32728068e-03	1.15993371e-04
1.69500000e+00	3.31537933e-03	1.15287633e-04
1.70000000e+00	3.29983176e-03	1.16199536e-04
1.70500000e+00	3.30604005e-03	1.16880845e-04
1.71000000e+00	3.27818645e-03	1.14409060e-04
1.71500000e+00	3.30201941e-03	1.15166673e-04
1.72000000e+00	3.28058642e-03	1.15349427e-04
1.72500000e+00	3.27788851e-03	1.15879832e-04
1.73000000e+00	3.27085362e-03	1.14135596e-04
1.73500000e+00	3.26555222e-03	1.14222910e-04
1.74000000e+00	3.24714568e-03	1.13953737e-04
1.74500000e+00	3.25301730e-03	1.15484448e-04
1.75000000e+00	3.24802303e-03	1.13110702e-04
1.75500000e+00	3.23256990e-03	1.13342597e-04
1.76000000e+00	3.21914446e-03	1.12812396e-04
1.76500000e+00	3.21313298e-03	1.13994261e-04
1.77000000e+00	3.21217335e-03	1.12086110e-04
1.77500000e+00	3.21661670e-03	1.12455621e-04
1.78000000e+00	3.20136298e-03	1.12347008e-04
1.78500000e+00	3.15965631e-03	1.12066404e-04
1.79000000e+00	3.19767273e-03	1.11510725e-04
1.79500000e+00	3.15699529e-03	1.10360534e-04
1.80000000e+00	3.17611111e-03	1.11713464e-04
1.80500000e+00	3.16677085e-03	1.12140302e-04
1.81000000e+00	3.16100033e-03	1.10250070e-04
1.81500000e+00	3.14799723e-03	1.09889686e-04
1.82000000e+00	3.14361790e-03	1.10566888e-04
1.82500000e+00	3.14477600e-03	1.11178203e-04
1.83000000e+00	3.11677134e-03	1.08798581e-04
1.83500000e+00	3.13602676e-03	1.09691698e-04
1.84000000e+00	3.09936545e-03	1.09006714e-04
1.84500000e+00	3.11784698e-03	1.10273534e-04
1.85000000e+00	3.11238276e-03	1.08751078e-04
1.85500000e+00	3.10839362e-03	1.08693296e-04
1.86000000e+00	3.07157051e-03	1.08140904e-04
1.86500000e+00	3.07589822e-03	1.08561216e-04
1.87000000e+00	3.07599619e-03	1.07434175e-04
1.87500000e+00	3.06735082e-03	1.07450385e-04
1.88000000e+00	3.04286096e-03	1.07036270e-04
1.88500000e+00	3.03131910e-03	1.07218301e-04
1.89000000e+00	3.02166584e-03	1.05461798e-04
1.89500000e+00	3.04470480e-03	1.06748847e-04
1.90000000e+00	3.00611206e-03	1.05836401e-04
1.90500000e+00	2.99020002e-03	1.05347517e-04
1.91000000e+00	2.96674325e-03	1.03748829e-04
1.91500000e+00	2.95717282e-03	1.03490050e-04
1.92000000e+00	2.95052473e-03	1.03823523e-04
1.92500000e+00	2.93757738e-03	1.03578762e-04
1.93000000e+00	2.94341708e-03	1.02769521e-04
1.93500000e+00	2.93399464e-03	1.02780794e-04
1.94000000e+00	2.91298085e-03	1.02873817e-04
1.94500000e+00	2.91119596e-03	1.02486529e-04
1.95000000e+00	2.90357272e-03	1.01273189e-04
1.95500000e+00	2.90607622e-03	1.01754453e-04
1.96000000e+00	2.86941561e-03	1.01151797e-04
1.96500000e+00	2.87887956e-03	1.01535513e-04
1.97000000e+00	2.86191503e-03	9.96866837e-05
1.97500000e+00	2.85781007e-03	1.00269081e-04
1.98000000e+00	2.84040579e-03	1.00075264e-04
1.98500000e+00	2.82701908e-03	9.97636630e-05
1.99000000e+00	2.84055297e-03	9.90089816e-05
1.99500000e+00	2.81071208e-03	9.84212674e-05
2.00000000e+00	2.79376365e-03	9.85510971e-05
2.00500000e+00	2.84708685e-03	1.00628707e-04
2.01000000e+00	2.79512278e-03	1.08370514e-04
2.01500000e+00	2.77897333e-03	1.14337171e-04
2.02000000e+00	2.77152782e-03	1.21580599e-04
2.02500000e+00	2.75235604e-03	1.25625053e-04
2.03000000e+00	2.73151386e-03	1.31929877e-04
2.03500000e+00	2.71371027e-03	1.36799098e-04
2.04000000e+00	2.73742713e-03	1.44317734e-04
2.04500000e+00	2.67388211e-03	1.48449674e-04
2.05000000e+00	2.71993397e-03	1.58432614e-04
2.05500000e+00	2.71590974e-03	1.54841739e-04
2.06000000e+00	2.74573146e-03	1.36468639e-04
2.06500000e+00	2.71729172e-03	1.29058411e-04
2.07000000e+00	2.68565703e-03	1.20727704e-04
2.07500000e+00	2.70876906e-03	1.18962065e-04
2.08000000e+00	2.67349947e-03	1.17161601e-04
2.08500000e+00	2.66246252e-03	1.15719265e-04
2.09000000e+00	2.64078476e-03	1.11407588e-04
2.09500000e+00	2.67717696e-03	1.11716951e-04
2.10000000e+00	2.66892225e-03	1.10724667e-04
2.10500000e+00	2.66412607e-03	1.10043822e-04
2.11000000e+00	2.64383832e-03	1.05260263e-04
2.11500000e+00	2.62425592e-03	1.03380110e-04
2.12000000e+00	2.61226816e-03	1.02456223e-04
2.12500000e+00	2.58360778e-03	1.00981565e-04
2.13000000e+00	2.57320140e-03	9.64874926e-05
2.13500000e+00	2.56377901e-03	9.49663087e-05
2.14000000e+00	2.52690215e-03	9.27188870e-05
2.14500000e+00	2.51325015e-03	9.25466006e-05
2.15000000e+00	2.52985252e-03	8.99813816e-05
2.15500000e+00	2.52319200e-03	8.98986284e-05
2.16000000e+00	2.51039542e-03	8.90575080e-05
2.16500000e+00	2.46278330e-03	8.80282898e-05
2.17000000e+00	2.46051782e-03	8.57625052e-05
2.17500000e+00	2.47174276e-03	8.63181392e-05
2.18000000e+00	2.44424089e-03	8.57004454e-05
2.18500000e+00	2.42758107e-03	8.55186092e-05
2.19000000e+00	2.42773669e-03	8.51944383e-05
2.19500000e+00	2.43343096e-03	8.50140941e-05
2.20000000e+00	2.41565369e-03	8.45731373e-05
2.20500000e+00	2.40498929e-03	8.44806121e-05
2.21000000e+00	2.38218932e-03	8.41450807e-05
2.21500000e+00	2.38562003e-03	8.32437795e-05
2.22000000e+00	2.35820482e-03	8.22016317e-05
2.22500000e+00	2.35342803e-03	8.27654793e-05
2.23000000e+00	2.33842927e-03	8.26875579e-05
2.23500000e+00	2.30612939e-03	8.04389225e-05
2.24000000e+00	2.30658269e-03	8.04661393e-05
2.24500000e+00	2.28599122e-03	8.03722418e-05
2.25000000e+00	2.28362002e-03	8.08996176e-05
2.25500000e+00	2.26080129e-03	7.86344965e-05
2.26000000e+00	2.26218938e-03	7.89945015e-05
2.26500000e+00	2.23416133e-03	7.83484968e-05
2.27000000e+00	2.22741004e-03	7.92357344e-05
2.27500000e+00	2.20156678e-03	7.67270529e-05
2.28000000e+00	2.17172737e-03	7.57230343e-05
2.28500000e+00	2.18008921e-03	7.65171021e-05
2.29000000e+00	2.14930622e-03	7.58423391e-05
2.29500000e+00	2.15427364e-03	7.57771631e-05
2.30000000e+00	2.16798222e-03	7.54798496e-05
2.30500000e+00	2.14323152e-03	7.48658682e-05
2.31000000e+00	2.12930732e-03	7.47728628e-05
2.31500000e+00	2.10799627e-03	7.46337676e-05
2.32000000e+00	2.11097623e-03	7.32162673e-05
2.32500000e+00	2.08416330e-03	7.28630157e-05
2.33000000e+00	2.07908804e-03	7.29033453e-05
2.33500000e+00	2.06344348e-03	7.30495263e-05
2.34000000e+00	2.04717046e-03	7.12770016e-05
2.34500000e+00	2.04152806e-03	7.10408475e-05
2.35000000e+00	2.03097616e-03	7.10848479e-05
2.35500000e+00	2.02809885e-03	7.18645203e-05
2.36000000e+00	2.00628522e-03	7.00901738e-05
2.36500000e+00	1.99935712e-03	6.97073404e-05
2.37000000e+00	1.98667680e-03	6.93068105e-05
2.37500000e+00	1.96235294e-03	6.91210444e-05
2.38000000e+00	1.96906815e-03	6.97262064e-05
2.38500000e+00	1.95372787e-03	6.81417181e-05
2.39000000e+00	1.93431445e-03	6.76498324e-05
2.39500000e+00	1.94120895e-03	6.83364007e-05
2.40000000e+00	1.92904890e-03	6.88697286e-05
2.40500000e+00	1.91822662e-03	6.70947240e-05
2.41000000e+00	1.87994436e-03	6.60291925e-05
2.41500000e+00	1.89600241e-03	6.65982999e-05
2.42000000e+00	1.87252278e-03	6.66436083e-05
2.42500000e+00	1.86719102e-03	6.63084079e-05
2.43000000e+00	1.84340454e-03	6.48958570e-05
2.43500000e+00	1.85275347e-03	6.54506535e-05
2.44000000e+00	1.84271192e-03	6.52386408e-05
2.44500000e+00	1.81499503e-03	6.50785404e-05
2.45000000e+00	1.83267790e-03	6.45128386e-05
2.45500000e+00	1.82866511e-03	6.46128868e-05
2.46000000e+00	1.79044148e-03	6.36603102e-05
2.46500000e+00	1.79334620e-03	6.44736388e-05
2.47000000e+00	1.76898807e-03	6.29057858e-05
2.47500000e+00	1.75750619e-03	6.21650556e-05
2.48000000e+00	1.74578666e-03	6.23437620e-05
2.48500000e+00	1.76044081e-03	6.28790403e-05
2.49000000e+00	1.74356956e-03	6.31182151e-05
2.49500000e+00	1.73020218e-03	6.14573564e-05
2.50000000e+00	1.73490343e-03	6.17783636e-05
2.50500000e+00	1.71141840e-03	6.12574575e-05
2.51000000e+00	1.71305725e-03	6.17783601e-05
2.51500000e+00	1.70219872e-03	6.14734598e-05
2.52000000e+00	1.69815783e-03	6.08712636e-05
2.52500000e+00	1.69208546e-03	6.08297212e-05
2.53000000e+00	1.67261885e-03	6.07399487e-05
2.53500000e+00	1.64842044e-03	6.05350212e-05
2.54000000e+00	1.65428153e-03	5.97247565e-05
2.54500000e+00	1.66571055e-03	6.04487041e-05
2.55000000e+00	1.63472967e-03	5.95999883e-05
2.55500000e+00	1.63817179e-03	6.02114239e-05
2.56000000e+00	1.62767812e-03	6.00942111e-05
2.56500000e+00	1.62315699e-03	5.93505177e-05
2.57000000e+00	1.61915380e-03	5.96271262e-05
2.57500000e+00	1.60188605e-03	5.90950168e-05
2.58000000e+00	1.59450585e-03	5.98297115e-05
2.58500000e+00	1.59483102e-03	5.93961784e-05
2.59000000e+00	1.59134476e-03	5.90130010e-05
2.59500000e+00	1.58242463e-03	5.87937753e-05
2.60000000e+00	1.57208551e-03	5.89431665e-05
2.60500000e+00	1.59807195e-03	6.12975626e-05
2.61000000e+00	1.56108255e-03	6.82262005e-05
2.61500000e+00	1.55011565e-03	7.51201599e-05
2.62000000e+00	1.51139398e-03	8.08181865e-05
2.62500000e+00	1.47679028e-03	8.53094102e-05
2.63000000e+00	1.49899435e-03	9.58102065e-05
2.63500000e+00	1.54868314e-03	1.09020630e-04
2.64000000e+00	1.59678438e-03	1.23834543e-04
2.64500000e+00	1.57864134e-03	1.30724420e-04
2.65000000e+00	1.53894432e-03	1.34577165e-04
2.65500000e+00	1.53008759e-03	1.44425185e-04
2.66000000e+00	1.56785536e-03	1.57967674e-04
2.66500000e+00	1.56088125e-03	1.76729883e-04
2.67000000e+00	1.57096712e-03	1.93753342e-04
2.67500000e+00	1.54108198e-03	2.21005917e-04
2.68000000e+00	1.51233332e-03	2.53390183e-04
2.68500000e+00	1.44015549e-03	3.18901716e-04
2.69000000e+00	1.39639442e-03	4.96610148e-04
2.69500000e+00	0.00000000e+00	0.00000000e+00
2.70000000e+00	0.00000000e+00	0.00000000e+00
