% Filename : WDL7_00012_00150.h5
% Date & Time : 30-Oct-2025 14:55:08
% X-ray Energy (keV) : 13.30001
% Exposure Time (s) : 0.500
% Photodiode Value : 135921.000
% I0 of Sample : 0
% I0 of Standard : 1
% 
% q(A^-1)   I(q)    I(q)_SE
8.40000000e-01	0.00000000e+00	0.00000000e+00
8.45000000e-01	2.78520628e-03	4.88133530e-04
8.50000000e-01	2.66879167e-03	2.47633486e-04
8.55000000e-01	2.63594099e-03	2.15617905e-04
8.60000000e-01	2.57548846e-03	1.82453989e-04
8.65000000e-01	2.57217629e-03	1.67885490e-04
8.70000000e-01	2.62065294e-03	1.62834837e-04
8.75000000e-01	2.62115971e-03	1.56753582e-04
8.80000000e-01	2.62755094e-03	1.52034538e-04
8.85000000e-01	2.62424152e-03	1.43546050e-04
8.90000000e-01	2.65773814e-03	1.42318508e-04
8.95000000e-01	2.63139824e-03	1.36834269e-04
9.00000000e-01	2.64300664e-03	1.36190591e-04
9.05000000e-01	2.62689063e-03	1.29421894e-04
9.10000000e-01	2.65590619e-03	1.28457614e-04
9.15000000e-01	2.67418090e-03	1.27145691e-04
9.20000000e-01	2.67495888e-03	1.27136215e-04
9.25000000e-01	2.68007581e-03	1.21858052e-04
9.30000000e-01	2.72741036e-03	1.22670842e-04
9.35000000e-01	2.67144826e-03	1.18029274e-04
9.40000000e-01	2.68429982e-03	1.18810564e-04
9.45000000e-01	2.69617530e-03	1.16559244e-04
9.50000000e-01	2.73219020e-03	1.16300254e-04
9.55000000e-01	2.69798529e-03	1.12780865e-04
9.60000000e-01	2.68899436e-03	1.12495485e-04
9.65000000e-01	2.73014900e-03	1.12369711e-04
9.70000000e-01	2.70592768e-03	1.09441118e-04
9.75000000e-01	2.71648106e-03	1.08719538e-04
9.80000000e-01	2.72074388e-03	1.07964249e-04
9.85000000e-01	2.72470293e-03	1.08191591e-04
9.90000000e-01	2.70957521e-03	1.04439128e-04
9.95000000e-01	2.74913810e-03	1.05370646e-04
1.00000000e+00	2.74282461e-03	1.04627215e-04
1.00500000e+00	2.74006268e-03	1.04528213e-04
1.01000000e+00	2.74939724e-03	1.02702060e-04
1.01500000e+00	2.74999703e-03	1.01809132e-04
1.02000000e+00	2.73533706e-03	1.01125501e-04
1.02500000e+00	2.70005462e-03	9.85623405e-05
1.03000000e+00	2.73322235e-03	9.95424886e-05
1.03500000e+00	2.72251632e-03	9.77467318e-05
1.04000000e+00	2.71025247e-03	9.66296843e-05
1.04500000e+00	2.72322955e-03	9.71970969e-05
1.05000000e+00	2.71745502e-03	9.63775602e-05
1.05500000e+00	2.71158188e-03	9.45717026e-05
1.06000000e+00	2.68733326e-03	9.36201403e-05
1.06500000e+00	2.72056381e-03	9.48965672e-05
1.07000000e+00	2.71506123e-03	9.46095334e-05
1.07500000e+00	2.74322246e-03	9.47595512e-05
1.08000000e+00	2.73860018e-03	9.40859182e-05
1.08500000e+00	2.72855251e-03	9.37825961e-05
1.09000000e+00	2.72529169e-03	9.41950420e-05
1.09500000e+00	2.74604521e-03	9.30924784e-05
1.10000000e+00	2.75487925e-03	9.39634886e-05
1.10500000e+00	2.77564224e-03	9.50721013e-05
1.11000000e+00	2.76082725e-03	9.46767218e-05
1.11500000e+00	2.77129906e-03	9.41675532e-05
1.12000000e+00	2.76137730e-03	9.41911352e-05
1.12500000e+00	2.77998601e-03	9.46514929e-05
1.13000000e+00	2.80416903e-03	9.65998076e-05
1.13500000e+00	2.80938926e-03	9.56384268e-05
1.14000000e+00	2.80114071e-03	9.51940751e-05
1.14500000e+00	2.81875930e-03	9.66715051e-05
1.15000000e+00	2.79417166e-03	9.62153449e-05
1.15500000e+00	2.83193995e-03	9.64646352e-05
1.16000000e+00	2.83907254e-03	9.71628888e-05
1.16500000e+00	2.83683894e-03	9.68475983e-05
1.17000000e+00	2.85033967e-03	9.84658774e-05
1.17500000e+00	2.84491181e-03	9.68626020e-05
1.18000000e+00	2.84777836e-03	9.74139826e-05
1.18500000e+00	2.85355142e-03	9.75303364e-05
1.19000000e+00	2.86603345e-03	9.90102678e-05
1.19500000e+00	2.88944433e-03	9.86548651e-05
1.20000000e+00	2.87247967e-03	9.85331979e-05
1.20500000e+00	2.85519968e-03	9.78423837e-05
1.21000000e+00	2.86999700e-03	9.95808819e-05
1.21500000e+00	2.89475224e-03	9.88979179e-05
1.22000000e+00	2.86163233e-03	9.77992138e-05
1.22500000e+00	2.87237088e-03	9.85972979e-05
1.23000000e+00	2.89494010e-03	1.00216004e-04
1.23500000e+00	2.87919701e-03	9.89098072e-05
1.24000000e+00	2.88948485e-03	9.87834702e-05
1.24500000e+00	2.89659341e-03	9.97985226e-05
1.25000000e+00	2.89955115e-03	1.00384907e-04
1.25500000e+00	2.89116357e-03	9.89496343e-05
1.26000000e+00	2.89965949e-03	9.98060229e-05
1.26500000e+00	2.91800964e-03	1.00160685e-04
1.27000000e+00	2.87648597e-03	1.00072905e-04
1.27500000e+00	2.91600704e-03	1.00554315e-04
1.28000000e+00	2.89342736e-03	9.90911557e-05
1.28500000e+00	2.91138802e-03	1.00267941e-04
1.29000000e+00	2.89524834e-03	1.00650919e-04
1.29500000e+00	2.92697328e-03	1.00599133e-04
1.30000000e+00	2.90092321e-03	9.95533517e-05
1.30500000e+00	2.89663887e-03	9.98778235e-05
1.31000000e+00	2.90871562e-03	1.01486076e-04
1.31500000e+00	2.91064370e-03	1.00224645e-04
1.32000000e+00	2.92101936e-03	1.00531006e-04
1.32500000e+00	2.91855093e-03	1.00749820e-04
1.33000000e+00	2.92773546e-03	1.02252355e-04
1.33500000e+00	2.91174638e-03	1.00350861e-04
1.34000000e+00	2.92583702e-03	1.00939446e-04
1.34500000e+00	2.91475159e-03	1.00880461e-04
1.35000000e+00	2.88151673e-03	1.00620525e-04
1.35500000e+00	2.89079844e-03	9.96214207e-05
1.36000000e+00	2.91666547e-03	1.00303168e-04
1.36500000e+00	2.92539314e-03	1.00975461e-04
1.37000000e+00	2.90051295e-03	1.01639774e-04
1.37500000e+00	2.89469666e-03	9.98253059e-05
1.38000000e+00	2.91069645e-03	1.00651279e-04
1.38500000e+00	2.91483973e-03	1.01319422e-04
1.39000000e+00	2.90234507e-03	1.01452414e-04
1.39500000e+00	2.89123543e-03	9.96788688e-05
1.40000000e+00	2.90836243e-03	1.03290165e-04
1.40500000e+00	2.86827755e-03	1.09689367e-04
1.41000000e+00	2.85968144e-03	1.14398879e-04
1.41500000e+00	2.86205480e-03	1.18695272e-04
1.42000000e+00	2.81579062e-03	1.21497873e-04
1.42500000e+00	2.81395338e-03	1.25176944e-04
1.43000000e+00	2.78925668e-03	1.28546259e-04
1.43500000e+00	2.77121404e-03	1.31836540e-04
1.44000000e+00	2.79448351e-03	1.38008194e-04
1.44500000e+00	2.78965025e-03	1.41385858e-04
1.45000000e+00	2.84786109e-03	1.39562478e-04
1.45500000e+00	2.86389643e-03	1.26083768e-04
1.46000000e+00	2.86018159e-03	1.23011148e-04
1.46500000e+00	2.86784931e-03	1.21002627e-04
1.47000000e+00	2.82124426e-03	1.18785390e-04
1.47500000e+00	2.86328328e-03	1.17018331e-04
1.48000000e+00	2.86879956e-03	1.16053883e-04
1.48500000e+00	2.85120654e-03	1.15425401e-04
1.49000000e+00	2.83489508e-03	1.15072539e-04
1.49500000e+00	2.84733894e-03	1.13019368e-04
1.50000000e+00	2.85890444e-03	1.13126612e-04
1.50500000e+00	2.86780965e-03	1.13978039e-04
1.51000000e+00	2.86013482e-03	1.13914770e-04
1.51500000e+00	2.88693689e-03	1.13137081e-04
1.52000000e+00	2.85925372e-03	1.11623762e-04
1.52500000e+00	2.88832487e-03	1.12638844e-04
1.53000000e+00	2.85660893e-03	1.12090561e-04
1.53500000e+00	2.83269845e-03	1.07996800e-04
1.54000000e+00	2.84279910e-03	1.08244682e-04
1.54500000e+00	2.86424039e-03	1.08773971e-04
1.55000000e+00	2.84676530e-03	1.07893282e-04
1.55500000e+00	2.81066126e-03	1.04072244e-04
1.56000000e+00	2.81642040e-03	1.04550735e-04
1.56500000e+00	2.79561474e-03	1.03228729e-04
1.57000000e+00	2.77969317e-03	1.01936352e-04
1.57500000e+00	2.76624326e-03	9.95362571e-05
1.58000000e+00	2.75787611e-03	9.90187996e-05
1.58500000e+00	2.76177825e-03	9.92220641e-05
1.59000000e+00	2.74800451e-03	9.87409271e-05
1.59500000e+00	2.74279933e-03	9.66706251e-05
1.60000000e+00	2.73319743e-03	9.63330043e-05
1.60500000e+00	2.76026957e-03	9.72773386e-05
1.61000000e+00	2.73008410e-03	9.58038577e-05
1.61500000e+00	2.72348789e-03	9.48030211e-05
1.62000000e+00	2.73224954e-03	9.53721464e-05
1.62500000e+00	2.70726453e-03	9.57153872e-05
1.63000000e+00	2.70528170e-03	9.45841927e-05
1.63500000e+00	2.67820672e-03	9.37268984e-05
1.64000000e+00	2.69130012e-03	9.41481474e-05
1.64500000e+00	2.68319086e-03	9.49037732e-05
1.65000000e+00	2.68164634e-03	9.38208857e-05
1.65500000e+00	2.65187735e-03	9.27123420e-05
1.66000000e+00	2.67325428e-03	9.35073807e-05
1.66500000e+00	2.65611035e-03	9.44770032e-05
1.67000000e+00	2.66143170e-03	9.27099066e-05
1.67500000e+00	2.64658792e-03	9.24477677e-05
1.68000000e+00	2.65550625e-03	9.30332249e-05
1.68500000e+00	2.63268684e-03	9.37631674e-05
1.69000000e+00	2.64883005e-03	9.25012037e-05
1.69500000e+00	2.62988280e-03	9.17011883e-05
1.70000000e+00	2.61710761e-03	9.23056482e-05
1.70500000e+00	2.59328662e-03	9.18331657e-05
1.71000000e+00	2.60248686e-03	9.10078906e-05
1.71500000e+00	2.60483093e-03	9.10746699e-05
1.72000000e+00	2.58271851e-03	9.09770341e-05
1.72500000e+00	2.57802658e-03	9.13393732e-05
1.73000000e+00	2.56670582e-03	8.97301572e-05
1.73500000e+00	2.55363814e-03	8.94607765e-05
1.74000000e+00	2.57612361e-03	9.05335444e-05
1.74500000e+00	2.56373266e-03	9.11727521e-05
1.75000000e+00	2.54382052e-03	8.86938290e-05
1.75500000e+00	2.56533317e-03	9.00249928e-05
1.76000000e+00	2.52941725e-03	8.87651509e-05
1.76500000e+00	2.52484557e-03	8.97443044e-05
1.77000000e+00	2.53241622e-03	8.84894335e-05
1.77500000e+00	2.50931587e-03	8.79546390e-05
1.78000000e+00	2.51915015e-03	8.84555042e-05
1.78500000e+00	2.48515215e-03	8.83111018e-05
1.79000000e+00	2.50590415e-03	8.75328347e-05
1.79500000e+00	2.49799639e-03	8.74987188e-05
1.80000000e+00	2.48610476e-03	8.77323756e-05
1.80500000e+00	2.49638769e-03	8.84707907e-05
1.81000000e+00	2.48675736e-03	8.69189939e-05
1.81500000e+00	2.45626639e-03	8.59117181e-05
1.82000000e+00	2.47215986e-03	8.70868196e-05
1.82500000e+00	2.44653606e-03	8.66966544e-05
1.83000000e+00	2.44405553e-03	8.54049606e-05
1.83500000e+00	2.45431943e-03	8.59865031e-05
1.84000000e+00	2.41703455e-03	8.51604359e-05
1.84500000e+00	2.43647292e-03	8.62515604e-05
1.85000000e+00	2.43336098e-03	8.52257649e-05
1.85500000e+00	2.42847709e-03	8.51127867e-05
1.86000000e+00	2.40945645e-03	8.50551360e-05
1.86500000e+00	2.39440944e-03	8.47479219e-05
1.87000000e+00	2.35991283e-03	8.25847121e-05
1.87500000e+00	2.38746263e-03	8.38315628e-05
1.88000000e+00	2.37317731e-03	8.36208215e-05
1.88500000e+00	2.36627042e-03	8.39439410e-05
1.89000000e+00	2.37027956e-03	8.28380031e-05
1.89500000e+00	2.35869211e-03	8.29230793e-05
1.90000000e+00	2.33402472e-03	8.23075682e-05
1.90500000e+00	2.32717748e-03	8.21272420e-05
1.91000000e+00	2.34223244e-03	8.21034911e-05
1.91500000e+00	2.31132592e-03	8.10273747e-05
1.92000000e+00	2.30865111e-03	8.14038070e-05
1.92500000e+00	2.31049074e-03	8.16321836e-05
1.93000000e+00	2.29769010e-03	8.04246885e-05
1.93500000e+00	2.29468995e-03	8.05799441e-05
1.94000000e+00	2.28466889e-03	8.08569668e-05
1.94500000e+00	2.27835518e-03	8.04169441e-05
1.95000000e+00	2.29183906e-03	8.00984851e-05
1.95500000e+00	2.27996928e-03	8.00294446e-05
1.96000000e+00	2.26818133e-03	8.01041613e-05
1.96500000e+00	2.27062897e-03	8.02550753e-05
1.97000000e+00	2.25316590e-03	7.86677512e-05
1.97500000e+00	2.23138631e-03	7.83701108e-05
1.98000000e+00	2.23916347e-03	7.90329717e-05
1.98500000e+00	2.23350786e-03	7.90949783e-05
1.99000000e+00	2.22268927e-03	7.76058402e-05
1.99500000e+00	2.21445335e-03	7.77178727e-05
2.00000000e+00	2.19574676e-03	7.76229435e-05
2.00500000e+00	2.23124705e-03	7.89597620e-05
2.01000000e+00	2.20282011e-03	8.55525213e-05
2.01500000e+00	2.17769810e-03	8.98822643e-05
2.02000000e+00	2.14960293e-03	9.45858899e-05
2.02500000e+00	2.12886033e-03	9.72769519e-05
2.03000000e+00	2.11360208e-03	1.02378740e-04
2.03500000e+00	2.10792851e-03	1.06596065e-04
2.04000000e+00	2.08454753e-03	1.10214317e-04
2.04500000e+00	2.07511388e-03	1.15425883e-04
2.05000000e+00	2.08622643e-03	1.22129158e-04
2.05500000e+00	2.10472007e-03	1.20387433e-04
2.06000000e+00	2.09625926e-03	1.04324878e-04
2.06500000e+00	2.08200892e-03	9.89615272e-05
2.07000000e+00	2.10231075e-03	9.47348562e-05
2.07500000e+00	2.11453962e-03	9.30687032e-05
2.08000000e+00	2.10263425e-03	9.24725040e-05
2.08500000e+00	2.08883952e-03	9.09906826e-05
2.09000000e+00	2.08192225e-03	8.79930104e-05
2.09500000e+00	2.10185223e-03	8.77987367e-05
2.10000000e+00	2.07570739e-03	8.62036181e-05
2.10500000e+00	2.05119693e-03	8.48848916e-05
2.11000000e+00	2.07722984e-03	8.28519521e-05
2.11500000e+00	2.03096984e-03	8.01180234e-05
2.12000000e+00	2.02264629e-03	7.94656465e-05
2.12500000e+00	2.02134454e-03	7.91310616e-05
2.13000000e+00	2.00544738e-03	7.53968242e-05
2.13500000e+00	1.98766191e-03	7.38008057e-05
2.14000000e+00	1.97520891e-03	7.26732297e-05
2.14500000e+00	1.95713646e-03	7.22080460e-05
2.15000000e+00	1.95713272e-03	6.98617860e-05
2.15500000e+00	1.94743209e-03	6.96801733e-05
2.16000000e+00	1.93742121e-03	6.89494855e-05
2.16500000e+00	1.92894744e-03	6.91062146e-05
2.17000000e+00	1.92211430e-03	6.71558733e-05
2.17500000e+00	1.91336886e-03	6.70731011e-05
2.18000000e+00	1.88753661e-03	6.63721117e-05
2.18500000e+00	1.90190352e-03	6.71905414e-05
2.19000000e+00	1.87501825e-03	6.60277124e-05
2.19500000e+00	1.85629824e-03	6.51001689e-05
2.20000000e+00	1.86857965e-03	6.55674250e-05
2.20500000e+00	1.85818143e-03	6.54984298e-05
2.21000000e+00	1.84128760e-03	6.51786581e-05
2.21500000e+00	1.82911713e-03	6.41191462e-05
2.22000000e+00	1.80612989e-03	6.31896780e-05
2.22500000e+00	1.79425239e-03	6.32947807e-05
2.23000000e+00	1.78110792e-03	6.31525973e-05
2.23500000e+00	1.78891205e-03	6.26204138e-05
2.24000000e+00	1.78158773e-03	6.23880802e-05
2.24500000e+00	1.78604665e-03	6.28535042e-05
2.25000000e+00	1.75689677e-03	6.25435409e-05
2.25500000e+00	1.76311874e-03	6.16029123e-05
2.26000000e+00	1.74407783e-03	6.11514090e-05
2.26500000e+00	1.73765472e-03	6.10830424e-05
2.27000000e+00	1.70109133e-03	6.06656531e-05
2.27500000e+00	1.70157829e-03	5.94885261e-05
2.28000000e+00	1.69491400e-03	5.92278538e-05
2.28500000e+00	1.67197278e-03	5.88801322e-05
2.29000000e+00	1.67404303e-03	5.92522281e-05
2.29500000e+00	1.67963771e-03	5.92783998e-05
2.30000000e+00	1.65792614e-03	5.79751844e-05
2.30500000e+00	1.63527479e-03	5.73508525e-05
2.31000000e+00	1.62557922e-03	5.72470450e-05
2.31500000e+00	1.62226327e-03	5.76069045e-05
2.32000000e+00	1.59860192e-03	5.56547286e-05
2.32500000e+00	1.58676685e-03	5.56916471e-05
2.33000000e+00	1.58126197e-03	5.55877248e-05
2.33500000e+00	1.57689059e-03	5.59908219e-05
2.34000000e+00	1.56373428e-03	5.46708243e-05
2.34500000e+00	1.55664825e-03	5.42752559e-05
2.35000000e+00	1.54014727e-03	5.39246598e-05
2.35500000e+00	1.55312622e-03	5.51467972e-05
2.36000000e+00	1.53275947e-03	5.37662530e-05
2.36500000e+00	1.51375479e-03	5.29846637e-05
2.37000000e+00	1.51005013e-03	5.29288828e-05
2.37500000e+00	1.49907501e-03	5.29910042e-05
2.38000000e+00	1.49903359e-03	5.32231546e-05
2.38500000e+00	1.49159997e-03	5.21883184e-05
2.39000000e+00	1.47752884e-03	5.18623517e-05
2.39500000e+00	1.46291900e-03	5.16101333e-05
2.40000000e+00	1.44975358e-03	5.19119914e-05
2.40500000e+00	1.46212881e-03	5.12794245e-05
2.41000000e+00	1.44487665e-03	5.08613223e-05
2.41500000e+00	1.42938248e-03	5.03625320e-05
2.42000000e+00	1.42488339e-03	5.09083177e-05
2.42500000e+00	1.40082584e-03	4.99510507e-05
2.43000000e+00	1.41356474e-03	4.98729170e-05
2.43500000e+00	1.40480311e-03	4.98198638e-05
2.44000000e+00	1.38960860e-03	4.92493599e-05
2.44500000e+00	1.38136491e-03	4.97198554e-05
2.45000000e+00	1.35914546e-03	4.79745581e-05
2.45500000e+00	1.36713559e-03	4.84410719e-05
2.46000000e+00	1.35257095e-03	4.80838155e-05
2.46500000e+00	1.33683268e-03	4.81514891e-05
2.47000000e+00	1.35212429e-03	4.81976784e-05
2.47500000e+00	1.32775336e-03	4.70305092e-05
2.48000000e+00	1.33366406e-03	4.77996205e-05
2.48500000e+00	1.30422117e-03	4.66126774e-05
2.49000000e+00	1.30685725e-03	4.73339739e-05
2.49500000e+00	1.29936475e-03	4.62066428e-05
2.50000000e+00	1.30555049e-03	4.65176050e-05
2.50500000e+00	1.28235469e-03	4.60119576e-05
2.51000000e+00	1.27712757e-03	4.61643787e-05
2.51500000e+00	1.26387726e-03	4.57020535e-05
2.52000000e+00	1.25986266e-03	4.51422478e-05
2.52500000e+00	1.25827044e-03	4.52393892e-05
2.53000000e+00	1.24631138e-03	4.52678069e-05
2.53500000e+00	1.24035400e-03	4.56354393e-05
2.54000000e+00	1.22287158e-03	4.42569004e-05
2.54500000e+00	1.22991286e-03	4.46468726e-05
2.55000000e+00	1.23317423e-03	4.49666827e-05
2.55500000e+00	1.19300173e-03	4.39437440e-05
2.56000000e+00	1.20659762e-03	4.46292963e-05
2.56500000e+00	1.19432350e-03	4.37783099e-05
2.57000000e+00	1.19704588e-03	4.41049529e-05
2.57500000e+00	1.19109628e-03	4.39450426e-05
2.58000000e+00	1.17872721e-03	4.42284468e-05
2.58500000e+00	1.18027735e-03	4.39820139e-05
2.59000000e+00	1.16338126e-03	4.32183365e-05
2.59500000e+00	1.15836999e-03	4.31650479e-05
2.60000000e+00	1.15744963e-03	4.34899769e-05
2.60500000e+00	1.16579069e-03	4.47807038e-05
2.61000000e+00	1.15048978e-03	5.02619009e-05
2.61500000e+00	1.12420944e-03	5.43836664e-05
2.62000000e+00	1.14422664e-03	6.09095916e-05
2.62500000e+00	1.12435190e-03	6.47980906e-05
2.63000000e+00	1.14578788e-03	7.28455537e-05
2.63500000e+00	1.12178438e-03	7.93676693e-05
2.64000000e+00	1.11214680e-03	8.67141712e-05
2.64500000e+00	1.11785396e-03	9.26190922e-05
2.65000000e+00	1.10485557e-03	9.70697460e-05
2.65500000e+00	1.09517945e-03	1.03650772e-04
2.66000000e+00	1.13386635e-03	1.15138700e-04
2.66500000e+00	1.07215981e-03	1.22014730e-04
2.67000000e+00	1.08737837e-03	1.34251844e-04
2.67500000e+00	1.06605356e-03	1.52696751e-04
2.68000000e+00	1.08170579e-03	1.81796275e-04
2.68500000e+00	1.12444585e-03	2.48724013e-04
2.69000000e+00	1.07963129e-03	3.84030330e-04
2.69500000e+00	0.00000000e+00	0.00000000e+00
2.70000000e+00	0.00000000e+00	0.00000000e+00
