% Filename : WDL7c_thin_00028_00008.h5
% Date & Time : 30-Oct-2025 17:09:56
% X-ray Energy (keV) : 13.30001
% Exposure Time (s) : 0.500
% Photodiode Value : 141331.000
% I0 of Sample : 0
% I0 of Standard : 1
% 
% q(A^-1)   I(q)    I(q)_SE
8.40000000e-01	0.00000000e+00	0.00000000e+00
8.45000000e-01	2.76787660e-03	4.85353808e-04
8.50000000e-01	2.67629705e-03	2.47820979e-04
8.55000000e-01	2.58899377e-03	2.11712998e-04
8.60000000e-01	2.60455973e-03	1.84381979e-04
8.65000000e-01	2.53861459e-03	1.65573930e-04
8.70000000e-01	2.59255263e-03	1.61141263e-04
8.75000000e-01	2.64160384e-03	1.57988878e-04
8.80000000e-01	2.59333773e-03	1.49793867e-04
8.85000000e-01	2.61163166e-03	1.42699312e-04
8.90000000e-01	2.60750944e-03	1.39482763e-04
8.95000000e-01	2.59530042e-03	1.34912736e-04
9.00000000e-01	2.61691465e-03	1.34764461e-04
9.05000000e-01	2.65518839e-03	1.30790843e-04
9.10000000e-01	2.65610311e-03	1.28443469e-04
9.15000000e-01	2.64646038e-03	1.25939729e-04
9.20000000e-01	2.64888379e-03	1.25927517e-04
9.25000000e-01	2.68537392e-03	1.22105503e-04
9.30000000e-01	2.69467624e-03	1.21215202e-04
9.35000000e-01	2.66344749e-03	1.17593705e-04
9.40000000e-01	2.67131505e-03	1.18283614e-04
9.45000000e-01	2.69102597e-03	1.16146339e-04
9.50000000e-01	2.70947034e-03	1.15317922e-04
9.55000000e-01	2.71151867e-03	1.13171422e-04
9.60000000e-01	2.71761500e-03	1.13613716e-04
9.65000000e-01	2.71599119e-03	1.11719950e-04
9.70000000e-01	2.70992207e-03	1.09612839e-04
9.75000000e-01	2.73609908e-03	1.09423344e-04
9.80000000e-01	2.70106942e-03	1.07199398e-04
9.85000000e-01	2.71828029e-03	1.07984370e-04
9.90000000e-01	2.77678281e-03	1.06927539e-04
9.95000000e-01	2.73131342e-03	1.04637452e-04
1.00000000e+00	2.74178481e-03	1.04566896e-04
1.00500000e+00	2.74362868e-03	1.04678977e-04
1.01000000e+00	2.73145917e-03	1.01976249e-04
1.01500000e+00	2.72079448e-03	1.00712382e-04
1.02000000e+00	2.73961877e-03	1.01319474e-04
1.02500000e+00	2.72426438e-03	9.95251688e-05
1.03000000e+00	2.73937474e-03	9.96651149e-05
1.03500000e+00	2.74016562e-03	9.83996601e-05
1.04000000e+00	2.71818877e-03	9.70017489e-05
1.04500000e+00	2.70016257e-03	9.62881926e-05
1.05000000e+00	2.69030094e-03	9.54477762e-05
1.05500000e+00	2.68448284e-03	9.37035642e-05
1.06000000e+00	2.70631755e-03	9.41622796e-05
1.06500000e+00	2.72495717e-03	9.49868236e-05
1.07000000e+00	2.71088402e-03	9.44183329e-05
1.07500000e+00	2.72958062e-03	9.43442661e-05
1.08000000e+00	2.73178649e-03	9.38411960e-05
1.08500000e+00	2.72345048e-03	9.36705195e-05
1.09000000e+00	2.73881290e-03	9.46492461e-05
1.09500000e+00	2.74456427e-03	9.30612385e-05
1.10000000e+00	2.76670332e-03	9.44610615e-05
1.10500000e+00	2.76296179e-03	9.44680694e-05
1.11000000e+00	2.73022848e-03	9.35849177e-05
1.11500000e+00	2.78196684e-03	9.46008322e-05
1.12000000e+00	2.79712861e-03	9.55187024e-05
1.12500000e+00	2.78218660e-03	9.47257713e-05
1.13000000e+00	2.79318168e-03	9.62247884e-05
1.13500000e+00	2.79265835e-03	9.50334680e-05
1.14000000e+00	2.79505045e-03	9.48450821e-05
1.14500000e+00	2.82451926e-03	9.68095755e-05
1.15000000e+00	2.81231606e-03	9.68040664e-05
1.15500000e+00	2.83552465e-03	9.65474522e-05
1.16000000e+00	2.82445686e-03	9.65419200e-05
1.16500000e+00	2.82505931e-03	9.64425631e-05
1.17000000e+00	2.85376000e-03	9.85869890e-05
1.17500000e+00	2.83917239e-03	9.67393066e-05
1.18000000e+00	2.83980905e-03	9.71703733e-05
1.18500000e+00	2.85352674e-03	9.74917156e-05
1.19000000e+00	2.86818796e-03	9.91607842e-05
1.19500000e+00	2.87152495e-03	9.79824526e-05
1.20000000e+00	2.86931560e-03	9.83669603e-05
1.20500000e+00	2.85234435e-03	9.77129432e-05
1.21000000e+00	2.86113066e-03	9.92572556e-05
1.21500000e+00	2.87661834e-03	9.81721876e-05
1.22000000e+00	2.88001941e-03	9.83498472e-05
1.22500000e+00	2.87467973e-03	9.86940773e-05
1.23000000e+00	2.88955473e-03	9.99260067e-05
1.23500000e+00	2.88012245e-03	9.88770053e-05
1.24000000e+00	2.86412865e-03	9.78236331e-05
1.24500000e+00	2.91144105e-03	1.00290830e-04
1.25000000e+00	2.89491249e-03	1.00328408e-04
1.25500000e+00	2.90066721e-03	9.92130606e-05
1.26000000e+00	2.91651735e-03	1.00396455e-04
1.26500000e+00	2.89683820e-03	9.93806555e-05
1.27000000e+00	2.90459581e-03	1.01086238e-04
1.27500000e+00	2.90352882e-03	9.99933607e-05
1.28000000e+00	2.91010627e-03	9.96180984e-05
1.28500000e+00	2.91404614e-03	1.00483447e-04
1.29000000e+00	2.91409832e-03	1.01215446e-04
1.29500000e+00	2.92382675e-03	1.00454935e-04
1.30000000e+00	2.90989983e-03	9.98685579e-05
1.30500000e+00	2.89252064e-03	9.97029131e-05
1.31000000e+00	2.92916600e-03	1.02082205e-04
1.31500000e+00	2.90437689e-03	1.00060137e-04
1.32000000e+00	2.90978150e-03	1.00105767e-04
1.32500000e+00	2.92033408e-03	1.00751985e-04
1.33000000e+00	2.90702532e-03	1.01459792e-04
1.33500000e+00	2.91330811e-03	1.00401076e-04
1.34000000e+00	2.91503988e-03	1.00447313e-04
1.34500000e+00	2.90961821e-03	1.00635059e-04
1.35000000e+00	2.90767397e-03	1.01543553e-04
1.35500000e+00	2.89359864e-03	9.96802397e-05
1.36000000e+00	2.92649258e-03	1.00660418e-04
1.36500000e+00	2.91557440e-03	1.00529369e-04
1.37000000e+00	2.90392501e-03	1.01668119e-04
1.37500000e+00	2.90776255e-03	1.00211621e-04
1.38000000e+00	2.89435252e-03	1.00039161e-04
1.38500000e+00	2.91360328e-03	1.01346670e-04
1.39000000e+00	2.89581981e-03	1.01280055e-04
1.39500000e+00	2.90267630e-03	1.00044143e-04
1.40000000e+00	2.92574573e-03	1.03985687e-04
1.40500000e+00	2.88659447e-03	1.10342504e-04
1.41000000e+00	2.83272279e-03	1.13411809e-04
1.41500000e+00	2.83010188e-03	1.17371627e-04
1.42000000e+00	2.82347265e-03	1.21716410e-04
1.42500000e+00	2.82552496e-03	1.25449225e-04
1.43000000e+00	2.79841025e-03	1.28921146e-04
1.43500000e+00	2.77138611e-03	1.31479120e-04
1.44000000e+00	2.75704425e-03	1.35841165e-04
1.44500000e+00	2.75212444e-03	1.39328918e-04
1.45000000e+00	2.84773053e-03	1.39495697e-04
1.45500000e+00	2.85735632e-03	1.25781556e-04
1.46000000e+00	2.85168476e-03	1.22413731e-04
1.46500000e+00	2.86302089e-03	1.20774626e-04
1.47000000e+00	2.85456775e-03	1.20240460e-04
1.47500000e+00	2.87013239e-03	1.17323359e-04
1.48000000e+00	2.84891766e-03	1.15329122e-04
1.48500000e+00	2.85697465e-03	1.15576213e-04
1.49000000e+00	2.83568246e-03	1.15010468e-04
1.49500000e+00	2.83629835e-03	1.12513418e-04
1.50000000e+00	2.84467440e-03	1.12445713e-04
1.50500000e+00	2.84683780e-03	1.13194517e-04
1.51000000e+00	2.86072558e-03	1.13909244e-04
1.51500000e+00	2.86942019e-03	1.12392022e-04
1.52000000e+00	2.86005158e-03	1.11642581e-04
1.52500000e+00	2.87812245e-03	1.12238614e-04
1.53000000e+00	2.86662883e-03	1.12455076e-04
1.53500000e+00	2.85918380e-03	1.08960447e-04
1.54000000e+00	2.84452153e-03	1.08308784e-04
1.54500000e+00	2.86519940e-03	1.08734248e-04
1.55000000e+00	2.83166000e-03	1.07245302e-04
1.55500000e+00	2.82602205e-03	1.04579858e-04
1.56000000e+00	2.83104071e-03	1.04988608e-04
1.56500000e+00	2.78109967e-03	1.02773853e-04
1.57000000e+00	2.78174030e-03	1.02025346e-04
1.57500000e+00	2.76325591e-03	9.93977550e-05
1.58000000e+00	2.75165212e-03	9.88586423e-05
1.58500000e+00	2.76438569e-03	9.92830642e-05
1.59000000e+00	2.75512561e-03	9.89265085e-05
1.59500000e+00	2.75864752e-03	9.72664349e-05
1.60000000e+00	2.72395505e-03	9.59767922e-05
1.60500000e+00	2.71143184e-03	9.56016068e-05
1.61000000e+00	2.71373614e-03	9.52740895e-05
1.61500000e+00	2.71131498e-03	9.43346509e-05
1.62000000e+00	2.70891230e-03	9.46469942e-05
1.62500000e+00	2.69722422e-03	9.53364867e-05
1.63000000e+00	2.71350686e-03	9.48546457e-05
1.63500000e+00	2.69761954e-03	9.42236262e-05
1.64000000e+00	2.68191715e-03	9.38192542e-05
1.64500000e+00	2.67023626e-03	9.43915894e-05
1.65000000e+00	2.65873597e-03	9.29528022e-05
1.65500000e+00	2.66532345e-03	9.31113200e-05
1.66000000e+00	2.66447650e-03	9.31681634e-05
1.66500000e+00	2.66716892e-03	9.47754308e-05
1.67000000e+00	2.65104319e-03	9.23663257e-05
1.67500000e+00	2.64673516e-03	9.23709258e-05
1.68000000e+00	2.64871919e-03	9.27800271e-05
1.68500000e+00	2.65574564e-03	9.44954327e-05
1.69000000e+00	2.62485218e-03	9.16519570e-05
1.69500000e+00	2.60979863e-03	9.09324537e-05
1.70000000e+00	2.60411872e-03	9.18310597e-05
1.70500000e+00	2.60188230e-03	9.21165806e-05
1.71000000e+00	2.61398747e-03	9.13234272e-05
1.71500000e+00	2.59543140e-03	9.07098198e-05
1.72000000e+00	2.59015981e-03	9.11342384e-05
1.72500000e+00	2.59742242e-03	9.20136324e-05
1.73000000e+00	2.61293467e-03	9.12909287e-05
1.73500000e+00	2.57266975e-03	9.01174221e-05
1.74000000e+00	2.55811472e-03	8.98901769e-05
1.74500000e+00	2.56675880e-03	9.12794154e-05
1.75000000e+00	2.57006853e-03	8.95682716e-05
1.75500000e+00	2.54276592e-03	8.92690258e-05
1.76000000e+00	2.53949985e-03	8.91244594e-05
1.76500000e+00	2.54046280e-03	9.03243617e-05
1.77000000e+00	2.51393510e-03	8.77699776e-05
1.77500000e+00	2.51582151e-03	8.81134415e-05
1.78000000e+00	2.50964264e-03	8.81881181e-05
1.78500000e+00	2.49682953e-03	8.86614964e-05
1.79000000e+00	2.50398494e-03	8.74805405e-05
1.79500000e+00	2.49788757e-03	8.74983567e-05
1.80000000e+00	2.48438441e-03	8.75382554e-05
1.80500000e+00	2.48869238e-03	8.82995716e-05
1.81000000e+00	2.48983396e-03	8.69792379e-05
1.81500000e+00	2.46444538e-03	8.61516339e-05
1.82000000e+00	2.46187286e-03	8.66426514e-05
1.82500000e+00	2.45740066e-03	8.69793581e-05
1.83000000e+00	2.44931926e-03	8.56487794e-05
1.83500000e+00	2.44414576e-03	8.56063580e-05
1.84000000e+00	2.41364608e-03	8.50209053e-05
1.84500000e+00	2.43203078e-03	8.61569157e-05
1.85000000e+00	2.41720402e-03	8.46407330e-05
1.85500000e+00	2.42169786e-03	8.48008491e-05
1.86000000e+00	2.41773731e-03	8.52846014e-05
1.86500000e+00	2.39605526e-03	8.46765008e-05
1.87000000e+00	2.38497219e-03	8.33959049e-05
1.87500000e+00	2.40542571e-03	8.43619889e-05
1.88000000e+00	2.38780334e-03	8.41357762e-05
1.88500000e+00	2.37346971e-03	8.41707584e-05
1.89000000e+00	2.34637093e-03	8.20207995e-05
1.89500000e+00	2.35567142e-03	8.28415800e-05
1.90000000e+00	2.36113469e-03	8.32691164e-05
1.90500000e+00	2.33760838e-03	8.24534573e-05
1.91000000e+00	2.35337211e-03	8.25009338e-05
1.91500000e+00	2.32714236e-03	8.16635831e-05
1.92000000e+00	2.32813656e-03	8.20914527e-05
1.92500000e+00	2.31296274e-03	8.16334387e-05
1.93000000e+00	2.30655242e-03	8.06762871e-05
1.93500000e+00	2.30731051e-03	8.09772005e-05
1.94000000e+00	2.28176858e-03	8.06864078e-05
1.94500000e+00	2.28335089e-03	8.05142427e-05
1.95000000e+00	2.26944261e-03	7.92655576e-05
1.95500000e+00	2.27435507e-03	7.98036647e-05
1.96000000e+00	2.25461467e-03	7.96102360e-05
1.96500000e+00	2.25098947e-03	7.95416290e-05
1.97000000e+00	2.26208133e-03	7.89693805e-05
1.97500000e+00	2.25010835e-03	7.90781511e-05
1.98000000e+00	2.22590910e-03	7.85767303e-05
1.98500000e+00	2.22240843e-03	7.85606035e-05
1.99000000e+00	2.22889734e-03	7.78496184e-05
1.99500000e+00	2.19957757e-03	7.71135280e-05
2.00000000e+00	2.21493348e-03	7.82020959e-05
2.00500000e+00	2.22390501e-03	7.88087045e-05
2.01000000e+00	2.19667067e-03	8.53093469e-05
2.01500000e+00	2.20055049e-03	9.08073115e-05
2.02000000e+00	2.17265601e-03	9.56041418e-05
2.02500000e+00	2.13525464e-03	9.74657503e-05
2.03000000e+00	2.14320410e-03	1.03772543e-04
2.03500000e+00	2.13030532e-03	1.07730922e-04
2.04000000e+00	2.09483210e-03	1.10570022e-04
2.04500000e+00	2.07681375e-03	1.15535852e-04
2.05000000e+00	2.07463986e-03	1.21142429e-04
2.05500000e+00	2.08192310e-03	1.19171824e-04
2.06000000e+00	2.13005947e-03	1.06019822e-04
2.06500000e+00	2.08953984e-03	9.94209819e-05
2.07000000e+00	2.11603815e-03	9.53445293e-05
2.07500000e+00	2.08416286e-03	9.17037634e-05
2.08000000e+00	2.09480551e-03	9.19489298e-05
2.08500000e+00	2.09503075e-03	9.12967768e-05
2.09000000e+00	2.09225888e-03	8.84059411e-05
2.09500000e+00	2.09393934e-03	8.75411645e-05
2.10000000e+00	2.08170599e-03	8.63946479e-05
2.10500000e+00	2.06975279e-03	8.56765381e-05
2.11000000e+00	2.05433637e-03	8.19292032e-05
2.11500000e+00	2.06278384e-03	8.14413818e-05
2.12000000e+00	2.03944545e-03	8.01009214e-05
2.12500000e+00	2.02614992e-03	7.93610731e-05
2.13000000e+00	2.00700244e-03	7.54033220e-05
2.13500000e+00	1.99432154e-03	7.39966039e-05
2.14000000e+00	1.96283464e-03	7.21813353e-05
2.14500000e+00	1.96614735e-03	7.24869715e-05
2.15000000e+00	1.94980314e-03	6.95038094e-05
2.15500000e+00	1.94796229e-03	6.95451562e-05
2.16000000e+00	1.92415312e-03	6.84183097e-05
2.16500000e+00	1.91962275e-03	6.86917587e-05
2.17000000e+00	1.92506194e-03	6.73024420e-05
2.17500000e+00	1.91097742e-03	6.69354922e-05
2.18000000e+00	1.88921401e-03	6.62916001e-05
2.18500000e+00	1.89085243e-03	6.66621209e-05
2.19000000e+00	1.87452894e-03	6.59914822e-05
2.19500000e+00	1.89420497e-03	6.63221662e-05
2.20000000e+00	1.85518042e-03	6.50998369e-05
2.20500000e+00	1.85389897e-03	6.53144311e-05
2.21000000e+00	1.85121311e-03	6.54681672e-05
2.21500000e+00	1.82848831e-03	6.40297328e-05
2.22000000e+00	1.81793540e-03	6.35503883e-05
2.22500000e+00	1.80833348e-03	6.37964147e-05
2.23000000e+00	1.80030831e-03	6.37973004e-05
2.23500000e+00	1.78591342e-03	6.25042471e-05
2.24000000e+00	1.78026543e-03	6.22878345e-05
2.24500000e+00	1.76377047e-03	6.21584904e-05
2.25000000e+00	1.76034023e-03	6.25123002e-05
2.25500000e+00	1.75882261e-03	6.13740556e-05
2.26000000e+00	1.74360040e-03	6.10449920e-05
2.26500000e+00	1.73908290e-03	6.11578803e-05
2.27000000e+00	1.71184610e-03	6.10570449e-05
2.27500000e+00	1.69969706e-03	5.94374931e-05
2.28000000e+00	1.69913747e-03	5.93708160e-05
2.28500000e+00	1.68025788e-03	5.91398738e-05
2.29000000e+00	1.67160843e-03	5.91366700e-05
2.29500000e+00	1.66718681e-03	5.88397150e-05
2.30000000e+00	1.63623509e-03	5.71419272e-05
2.30500000e+00	1.62963199e-03	5.70773135e-05
2.31000000e+00	1.63078692e-03	5.74817396e-05
2.31500000e+00	1.63774889e-03	5.80885436e-05
2.32000000e+00	1.61784354e-03	5.62855991e-05
2.32500000e+00	1.60394469e-03	5.63206652e-05
2.33000000e+00	1.58505108e-03	5.57508564e-05
2.33500000e+00	1.58693242e-03	5.63738937e-05
2.34000000e+00	1.56315128e-03	5.46024883e-05
2.34500000e+00	1.54719346e-03	5.40459560e-05
2.35000000e+00	1.54285252e-03	5.41112204e-05
2.35500000e+00	1.54643529e-03	5.49031903e-05
2.36000000e+00	1.53597530e-03	5.38016843e-05
2.36500000e+00	1.50950039e-03	5.28453532e-05
2.37000000e+00	1.51196556e-03	5.29509650e-05
2.37500000e+00	1.51273323e-03	5.33507374e-05
2.38000000e+00	1.48326753e-03	5.26275120e-05
2.38500000e+00	1.48752409e-03	5.20081730e-05
2.39000000e+00	1.48079726e-03	5.19051261e-05
2.39500000e+00	1.45860254e-03	5.14024663e-05
2.40000000e+00	1.45278828e-03	5.20206247e-05
2.40500000e+00	1.45886268e-03	5.11393936e-05
2.41000000e+00	1.45412524e-03	5.11668350e-05
2.41500000e+00	1.42682547e-03	5.01688066e-05
2.42000000e+00	1.41383569e-03	5.04141748e-05
2.42500000e+00	1.40335546e-03	5.00721527e-05
2.43000000e+00	1.40451010e-03	4.94978416e-05
2.43500000e+00	1.39522783e-03	4.93714221e-05
2.44000000e+00	1.39691704e-03	4.94999665e-05
2.44500000e+00	1.37487835e-03	4.94657365e-05
2.45000000e+00	1.37674789e-03	4.85849568e-05
2.45500000e+00	1.36155576e-03	4.82193707e-05
2.46000000e+00	1.35391230e-03	4.81786632e-05
2.46500000e+00	1.33922144e-03	4.81756052e-05
2.47000000e+00	1.33914859e-03	4.77726990e-05
2.47500000e+00	1.32224134e-03	4.67949406e-05
2.48000000e+00	1.31169478e-03	4.69219742e-05
2.48500000e+00	1.31253378e-03	4.68261622e-05
2.49000000e+00	1.29332126e-03	4.68326317e-05
2.49500000e+00	1.29121851e-03	4.59226055e-05
2.50000000e+00	1.28795314e-03	4.58472345e-05
2.50500000e+00	1.28218116e-03	4.59072404e-05
2.51000000e+00	1.27242092e-03	4.58535652e-05
2.51500000e+00	1.27126576e-03	4.59707666e-05
2.52000000e+00	1.25399059e-03	4.49742746e-05
2.52500000e+00	1.25307038e-03	4.50389641e-05
2.53000000e+00	1.25410891e-03	4.56082716e-05
2.53500000e+00	1.23854581e-03	4.55446418e-05
2.54000000e+00	1.23604411e-03	4.46452868e-05
2.54500000e+00	1.23242050e-03	4.47861401e-05
2.55000000e+00	1.21050234e-03	4.41474801e-05
2.55500000e+00	1.20662436e-03	4.44412926e-05
2.56000000e+00	1.20411917e-03	4.45779420e-05
2.56500000e+00	1.20025281e-03	4.39547670e-05
2.57000000e+00	1.19102422e-03	4.38800882e-05
2.57500000e+00	1.18133227e-03	4.36325718e-05
2.58000000e+00	1.16992040e-03	4.39145382e-05
2.58500000e+00	1.16543405e-03	4.34185749e-05
2.59000000e+00	1.15773181e-03	4.29503007e-05
2.59500000e+00	1.16226741e-03	4.32976030e-05
2.60000000e+00	1.15558795e-03	4.33940504e-05
2.60500000e+00	1.16245344e-03	4.45661541e-05
2.61000000e+00	1.15587215e-03	5.05185982e-05
2.61500000e+00	1.12609653e-03	5.44824091e-05
2.62000000e+00	1.13648811e-03	6.04065294e-05
2.62500000e+00	1.12942397e-03	6.48139867e-05
2.63000000e+00	1.11187392e-03	7.07204076e-05
2.63500000e+00	1.12736767e-03	7.95059308e-05
2.64000000e+00	1.14079631e-03	8.84979416e-05
2.64500000e+00	1.12374256e-03	9.36476476e-05
2.65000000e+00	1.12509374e-03	9.86921878e-05
2.65500000e+00	1.10943229e-03	1.04585796e-04
2.66000000e+00	1.02424055e-03	1.04459883e-04
2.66500000e+00	1.05842909e-03	1.20200948e-04
2.67000000e+00	1.11427744e-03	1.37430093e-04
2.67500000e+00	1.06670667e-03	1.53067204e-04
2.68000000e+00	1.05331249e-03	1.76152178e-04
2.68500000e+00	1.04909740e-03	2.35436941e-04
2.69000000e+00	1.09320915e-03	3.93404697e-04
2.69500000e+00	0.00000000e+00	0.00000000e+00
2.70000000e+00	0.00000000e+00	0.00000000e+00
