% Filename : WDL7_00012_00009.h5
% Date & Time : 30-Oct-2025 14:46:34
% X-ray Energy (keV) : 13.30001
% Exposure Time (s) : 0.500
% Photodiode Value : 135444.000
% I0 of Sample : 0
% I0 of Standard : 1
% 
% q(A^-1)   I(q)    I(q)_SE
8.40000000e-01	0.00000000e+00	0.00000000e+00
8.45000000e-01	2.82900953e-03	4.97327473e-04
8.50000000e-01	2.71868754e-03	2.52539526e-04
8.55000000e-01	2.59658243e-03	2.12111704e-04
8.60000000e-01	2.63506658e-03	1.86347546e-04
8.65000000e-01	2.61996923e-03	1.70701567e-04
8.70000000e-01	2.63812110e-03	1.63997460e-04
8.75000000e-01	2.65889816e-03	1.58894390e-04
8.80000000e-01	2.62288125e-03	1.51696699e-04
8.85000000e-01	2.64664150e-03	1.44802277e-04
8.90000000e-01	2.64868564e-03	1.41894614e-04
8.95000000e-01	2.69353603e-03	1.40041210e-04
9.00000000e-01	2.68097997e-03	1.37976035e-04
9.05000000e-01	2.68694902e-03	1.32388987e-04
9.10000000e-01	2.66438798e-03	1.28798337e-04
9.15000000e-01	2.65858692e-03	1.26614232e-04
9.20000000e-01	2.68682312e-03	1.27712324e-04
9.25000000e-01	2.67897496e-03	1.21755306e-04
9.30000000e-01	2.72389104e-03	1.22576211e-04
9.35000000e-01	2.67912752e-03	1.18372343e-04
9.40000000e-01	2.72070121e-03	1.20530612e-04
9.45000000e-01	2.70771284e-03	1.16938816e-04
9.50000000e-01	2.71272142e-03	1.15442768e-04
9.55000000e-01	2.73327972e-03	1.14272883e-04
9.60000000e-01	2.72406284e-03	1.13961431e-04
9.65000000e-01	2.74725932e-03	1.12865343e-04
9.70000000e-01	2.73986708e-03	1.10838780e-04
9.75000000e-01	2.71939999e-03	1.08861213e-04
9.80000000e-01	2.73549243e-03	1.08478321e-04
9.85000000e-01	2.75780404e-03	1.09570456e-04
9.90000000e-01	2.75339322e-03	1.06116991e-04
9.95000000e-01	2.75731821e-03	1.05648062e-04
1.00000000e+00	2.77744305e-03	1.05869350e-04
1.00500000e+00	2.76275236e-03	1.05488338e-04
1.01000000e+00	2.76546854e-03	1.03324343e-04
1.01500000e+00	2.77632725e-03	1.02705420e-04
1.02000000e+00	2.76128254e-03	1.02204650e-04
1.02500000e+00	2.74001704e-03	9.99611706e-05
1.03000000e+00	2.76177831e-03	1.00468092e-04
1.03500000e+00	2.74417849e-03	9.84023816e-05
1.04000000e+00	2.73021006e-03	9.75064846e-05
1.04500000e+00	2.74889160e-03	9.80094764e-05
1.05000000e+00	2.73190295e-03	9.69511331e-05
1.05500000e+00	2.71670756e-03	9.48957653e-05
1.06000000e+00	2.72916216e-03	9.50086183e-05
1.06500000e+00	2.72022702e-03	9.47873131e-05
1.07000000e+00	2.73551909e-03	9.52484027e-05
1.07500000e+00	2.75695598e-03	9.52092252e-05
1.08000000e+00	2.74056799e-03	9.40844039e-05
1.08500000e+00	2.76002112e-03	9.49168844e-05
1.09000000e+00	2.73059191e-03	9.42723773e-05
1.09500000e+00	2.76077929e-03	9.36002910e-05
1.10000000e+00	2.77006517e-03	9.45140201e-05
1.10500000e+00	2.77309049e-03	9.49267131e-05
1.11000000e+00	2.73034196e-03	9.35564116e-05
1.11500000e+00	2.78786354e-03	9.46845663e-05
1.12000000e+00	2.78850034e-03	9.51777235e-05
1.12500000e+00	2.82408296e-03	9.61124864e-05
1.13000000e+00	2.82542416e-03	9.73785605e-05
1.13500000e+00	2.82901406e-03	9.62588986e-05
1.14000000e+00	2.83061463e-03	9.62034418e-05
1.14500000e+00	2.82695912e-03	9.67873838e-05
1.15000000e+00	2.84555635e-03	9.79731272e-05
1.15500000e+00	2.84878783e-03	9.69748043e-05
1.16000000e+00	2.86684008e-03	9.79326756e-05
1.16500000e+00	2.85156709e-03	9.73374102e-05
1.17000000e+00	2.84708377e-03	9.83689737e-05
1.17500000e+00	2.86904798e-03	9.76714129e-05
1.18000000e+00	2.87368239e-03	9.82601613e-05
1.18500000e+00	2.88195559e-03	9.84697303e-05
1.19000000e+00	2.86402243e-03	9.89201933e-05
1.19500000e+00	2.89332819e-03	9.86808784e-05
1.20000000e+00	2.89906118e-03	9.93506537e-05
1.20500000e+00	2.88756034e-03	9.88521030e-05
1.21000000e+00	2.89623468e-03	1.00448913e-04
1.21500000e+00	2.91901930e-03	9.96155017e-05
1.22000000e+00	2.88715105e-03	9.87440966e-05
1.22500000e+00	2.89200501e-03	9.92188392e-05
1.23000000e+00	2.91378414e-03	1.00707077e-04
1.23500000e+00	2.90514986e-03	9.96890106e-05
1.24000000e+00	2.89917211e-03	9.90866556e-05
1.24500000e+00	2.89364197e-03	9.96850148e-05
1.25000000e+00	2.91532771e-03	1.00970982e-04
1.25500000e+00	2.92637801e-03	1.00092420e-04
1.26000000e+00	2.93103590e-03	1.00950806e-04
1.26500000e+00	2.94870483e-03	1.01183361e-04
1.27000000e+00	2.93741896e-03	1.02253271e-04
1.27500000e+00	2.93895620e-03	1.01357863e-04
1.28000000e+00	2.91235292e-03	9.96668440e-05
1.28500000e+00	2.92435720e-03	1.00698710e-04
1.29000000e+00	2.91451103e-03	1.01253139e-04
1.29500000e+00	2.93127261e-03	1.00657876e-04
1.30000000e+00	2.92830494e-03	1.00510021e-04
1.30500000e+00	2.94812742e-03	1.01682193e-04
1.31000000e+00	2.93482480e-03	1.02409180e-04
1.31500000e+00	2.95102993e-03	1.01625542e-04
1.32000000e+00	2.95139117e-03	1.01475116e-04
1.32500000e+00	2.92250621e-03	1.00788637e-04
1.33000000e+00	2.94065781e-03	1.02637282e-04
1.33500000e+00	2.92228792e-03	1.00579713e-04
1.34000000e+00	2.93298083e-03	1.01158948e-04
1.34500000e+00	2.93802470e-03	1.01692967e-04
1.35000000e+00	2.91768961e-03	1.01959779e-04
1.35500000e+00	2.94676736e-03	1.01551096e-04
1.36000000e+00	2.92711369e-03	1.00706872e-04
1.36500000e+00	2.93454217e-03	1.01225388e-04
1.37000000e+00	2.92498595e-03	1.02452497e-04
1.37500000e+00	2.92223892e-03	1.00760854e-04
1.38000000e+00	2.91760155e-03	1.00859695e-04
1.38500000e+00	2.93327018e-03	1.01988150e-04
1.39000000e+00	2.89643611e-03	1.01311273e-04
1.39500000e+00	2.94077728e-03	1.01363143e-04
1.40000000e+00	2.94861081e-03	1.04700685e-04
1.40500000e+00	2.92090314e-03	1.11560470e-04
1.41000000e+00	2.88729272e-03	1.15624545e-04
1.41500000e+00	2.88366617e-03	1.19684998e-04
1.42000000e+00	2.86113615e-03	1.23262073e-04
1.42500000e+00	2.86307778e-03	1.27262626e-04
1.43000000e+00	2.82376426e-03	1.30249737e-04
1.43500000e+00	2.81531795e-03	1.33860743e-04
1.44000000e+00	2.83523192e-03	1.40107808e-04
1.44500000e+00	2.78193357e-03	1.40773488e-04
1.45000000e+00	2.87058892e-03	1.40863691e-04
1.45500000e+00	2.90336908e-03	1.27769859e-04
1.46000000e+00	2.88995026e-03	1.24160859e-04
1.46500000e+00	2.88569309e-03	1.21896181e-04
1.47000000e+00	2.85990112e-03	1.20538796e-04
1.47500000e+00	2.86163966e-03	1.17069305e-04
1.48000000e+00	2.87961247e-03	1.16483737e-04
1.48500000e+00	2.87629309e-03	1.16398555e-04
1.49000000e+00	2.87918954e-03	1.16863787e-04
1.49500000e+00	2.87444483e-03	1.14068376e-04
1.50000000e+00	2.86171187e-03	1.13067910e-04
1.50500000e+00	2.88604735e-03	1.14724473e-04
1.51000000e+00	2.87330205e-03	1.14503272e-04
1.51500000e+00	2.90192514e-03	1.13666262e-04
1.52000000e+00	2.87369874e-03	1.12164820e-04
1.52500000e+00	2.90825170e-03	1.13475957e-04
1.53000000e+00	2.89138679e-03	1.13497824e-04
1.53500000e+00	2.91927012e-03	1.11292432e-04
1.54000000e+00	2.87201289e-03	1.09319855e-04
1.54500000e+00	2.86574296e-03	1.08803079e-04
1.55000000e+00	2.85962947e-03	1.08280533e-04
1.55500000e+00	2.84120699e-03	1.05283572e-04
1.56000000e+00	2.83630446e-03	1.05228885e-04
1.56500000e+00	2.81347165e-03	1.03866534e-04
1.57000000e+00	2.81156530e-03	1.03147650e-04
1.57500000e+00	2.79468977e-03	1.00579112e-04
1.58000000e+00	2.80266643e-03	1.00696164e-04
1.58500000e+00	2.76839959e-03	9.94769816e-05
1.59000000e+00	2.78850345e-03	1.00271899e-04
1.59500000e+00	2.75565978e-03	9.71217178e-05
1.60000000e+00	2.77917449e-03	9.78944704e-05
1.60500000e+00	2.75244495e-03	9.70669642e-05
1.61000000e+00	2.75055226e-03	9.65885906e-05
1.61500000e+00	2.76083434e-03	9.60684238e-05
1.62000000e+00	2.74968879e-03	9.60178868e-05
1.62500000e+00	2.72610809e-03	9.64090833e-05
1.63000000e+00	2.72894298e-03	9.54247706e-05
1.63500000e+00	2.72765185e-03	9.53584396e-05
1.64000000e+00	2.72552869e-03	9.52826857e-05
1.64500000e+00	2.71245530e-03	9.58474398e-05
1.65000000e+00	2.69212337e-03	9.41731632e-05
1.65500000e+00	2.71320287e-03	9.47566585e-05
1.66000000e+00	2.69392009e-03	9.42673240e-05
1.66500000e+00	2.67263874e-03	9.50057008e-05
1.67000000e+00	2.66381466e-03	9.27209419e-05
1.67500000e+00	2.65549937e-03	9.27986751e-05
1.68000000e+00	2.66335292e-03	9.32435249e-05
1.68500000e+00	2.67009387e-03	9.51534961e-05
1.69000000e+00	2.65424045e-03	9.26233888e-05
1.69500000e+00	2.68471902e-03	9.37027246e-05
1.70000000e+00	2.64824447e-03	9.33804273e-05
1.70500000e+00	2.64105103e-03	9.35141422e-05
1.71000000e+00	2.64418449e-03	9.24596559e-05
1.71500000e+00	2.63377660e-03	9.20230562e-05
1.72000000e+00	2.61068094e-03	9.19977836e-05
1.72500000e+00	2.61550871e-03	9.26492955e-05
1.73000000e+00	2.60140148e-03	9.09279603e-05
1.73500000e+00	2.59008369e-03	9.07651639e-05
1.74000000e+00	2.59155635e-03	9.10649885e-05
1.74500000e+00	2.57030537e-03	9.13425273e-05
1.75000000e+00	2.58094691e-03	9.00079631e-05
1.75500000e+00	2.59297735e-03	9.10350988e-05
1.76000000e+00	2.55796260e-03	8.98049395e-05
1.76500000e+00	2.56705308e-03	9.12329616e-05
1.77000000e+00	2.55913561e-03	8.94359136e-05
1.77500000e+00	2.55072197e-03	8.93688234e-05
1.78000000e+00	2.53584515e-03	8.91310255e-05
1.78500000e+00	2.54824026e-03	9.05137776e-05
1.79000000e+00	2.54593739e-03	8.89503052e-05
1.79500000e+00	2.51355308e-03	8.80186146e-05
1.80000000e+00	2.52274519e-03	8.89727369e-05
1.80500000e+00	2.51577767e-03	8.91958457e-05
1.81000000e+00	2.50441907e-03	8.75340601e-05
1.81500000e+00	2.49946814e-03	8.74392402e-05
1.82000000e+00	2.48623687e-03	8.75304943e-05
1.82500000e+00	2.48531720e-03	8.80199072e-05
1.83000000e+00	2.48462877e-03	8.68940283e-05
1.83500000e+00	2.46996119e-03	8.65173255e-05
1.84000000e+00	2.46311292e-03	8.67148505e-05
1.84500000e+00	2.45094564e-03	8.68595263e-05
1.85000000e+00	2.45579263e-03	8.60309903e-05
1.85500000e+00	2.44594968e-03	8.57531996e-05
1.86000000e+00	2.43091557e-03	8.57725113e-05
1.86500000e+00	2.43387987e-03	8.60090872e-05
1.87000000e+00	2.41985982e-03	8.46686732e-05
1.87500000e+00	2.40174176e-03	8.43098782e-05
1.88000000e+00	2.40731025e-03	8.48735850e-05
1.88500000e+00	2.40597343e-03	8.52269847e-05
1.89000000e+00	2.38469316e-03	8.34118148e-05
1.89500000e+00	2.38168029e-03	8.37230803e-05
1.90000000e+00	2.38533170e-03	8.41208457e-05
1.90500000e+00	2.36621427e-03	8.34454097e-05
1.91000000e+00	2.37177804e-03	8.31287856e-05
1.91500000e+00	2.35198348e-03	8.25257355e-05
1.92000000e+00	2.35537307e-03	8.31251012e-05
1.92500000e+00	2.33004438e-03	8.22381840e-05
1.93000000e+00	2.34858620e-03	8.22275832e-05
1.93500000e+00	2.33952343e-03	8.21397170e-05
1.94000000e+00	2.33089530e-03	8.24557214e-05
1.94500000e+00	2.31296648e-03	8.16097168e-05
1.95000000e+00	2.30660018e-03	8.06598548e-05
1.95500000e+00	2.28674991e-03	8.02345604e-05
1.96000000e+00	2.28132115e-03	8.06103412e-05
1.96500000e+00	2.29009997e-03	8.09266916e-05
1.97000000e+00	2.28937771e-03	7.98666117e-05
1.97500000e+00	2.28033741e-03	8.01759880e-05
1.98000000e+00	2.25700442e-03	7.96782572e-05
1.98500000e+00	2.24885794e-03	7.95810062e-05
1.99000000e+00	2.24513825e-03	7.84095034e-05
1.99500000e+00	2.23220924e-03	7.83534713e-05
2.00000000e+00	2.21192848e-03	7.82177919e-05
2.00500000e+00	2.25976467e-03	7.99748846e-05
2.01000000e+00	2.23238540e-03	8.67318900e-05
2.01500000e+00	2.20083806e-03	9.07659370e-05
2.02000000e+00	2.17974741e-03	9.60051836e-05
2.02500000e+00	2.18698929e-03	9.98947059e-05
2.03000000e+00	2.14697550e-03	1.04079186e-04
2.03500000e+00	2.12728489e-03	1.07634959e-04
2.04000000e+00	2.13278087e-03	1.12717071e-04
2.04500000e+00	2.13372664e-03	1.18744656e-04
2.05000000e+00	2.11018784e-03	1.23429987e-04
2.05500000e+00	2.12190606e-03	1.21513941e-04
2.06000000e+00	2.13825476e-03	1.06658381e-04
2.06500000e+00	2.12267279e-03	1.01065955e-04
2.07000000e+00	2.12350178e-03	9.56188549e-05
2.07500000e+00	2.09066065e-03	9.20845724e-05
2.08000000e+00	2.12810066e-03	9.34479911e-05
2.08500000e+00	2.11367542e-03	9.21297829e-05
2.09000000e+00	2.11461686e-03	8.93180075e-05
2.09500000e+00	2.11368022e-03	8.83831986e-05
2.10000000e+00	2.11618829e-03	8.79005371e-05
2.10500000e+00	2.08114444e-03	8.61359836e-05
2.11000000e+00	2.09577450e-03	8.35305581e-05
2.11500000e+00	2.07307018e-03	8.18824000e-05
2.12000000e+00	2.04886816e-03	8.04707854e-05
2.12500000e+00	2.03144571e-03	7.96305122e-05
2.13000000e+00	2.00942117e-03	7.55388244e-05
2.13500000e+00	2.02599816e-03	7.52969591e-05
2.14000000e+00	1.99411079e-03	7.34280190e-05
2.14500000e+00	1.99975136e-03	7.37028054e-05
2.15000000e+00	1.97159531e-03	7.03115140e-05
2.15500000e+00	1.95358902e-03	6.98636428e-05
2.16000000e+00	1.94598357e-03	6.91717672e-05
2.16500000e+00	1.93853144e-03	6.94277150e-05
2.17000000e+00	1.95650402e-03	6.83563601e-05
2.17500000e+00	1.94350400e-03	6.80948485e-05
2.18000000e+00	1.91095819e-03	6.71075752e-05
2.18500000e+00	1.92906865e-03	6.81086203e-05
2.19000000e+00	1.90822652e-03	6.72050120e-05
2.19500000e+00	1.87878587e-03	6.57687468e-05
2.20000000e+00	1.89767292e-03	6.66403178e-05
2.20500000e+00	1.87242268e-03	6.58939401e-05
2.21000000e+00	1.89165130e-03	6.69432922e-05
2.21500000e+00	1.86947570e-03	6.54894856e-05
2.22000000e+00	1.83940157e-03	6.43193589e-05
2.22500000e+00	1.82128685e-03	6.42519607e-05
2.23000000e+00	1.82636875e-03	6.47469747e-05
2.23500000e+00	1.81626887e-03	6.35227949e-05
2.24000000e+00	1.81207591e-03	6.33790655e-05
2.24500000e+00	1.79258655e-03	6.31431351e-05
2.25000000e+00	1.78178888e-03	6.33617383e-05
2.25500000e+00	1.77509511e-03	6.19825552e-05
2.26000000e+00	1.75769840e-03	6.15967166e-05
2.26500000e+00	1.75531612e-03	6.16640903e-05
2.27000000e+00	1.74896273e-03	6.23264323e-05
2.27500000e+00	1.72136450e-03	6.01546988e-05
2.28000000e+00	1.73065892e-03	6.05190100e-05
2.28500000e+00	1.71863456e-03	6.04605751e-05
2.29000000e+00	1.69912634e-03	6.01480183e-05
2.29500000e+00	1.67077486e-03	5.89638215e-05
2.30000000e+00	1.67815528e-03	5.86628978e-05
2.30500000e+00	1.67702484e-03	5.87883141e-05
2.31000000e+00	1.65041118e-03	5.81319891e-05
2.31500000e+00	1.63232516e-03	5.79965471e-05
2.32000000e+00	1.62554001e-03	5.65765698e-05
2.32500000e+00	1.60675738e-03	5.63360668e-05
2.33000000e+00	1.60817765e-03	5.65021782e-05
2.33500000e+00	1.59371744e-03	5.66206765e-05
2.34000000e+00	1.58677108e-03	5.54088703e-05
2.34500000e+00	1.59729160e-03	5.57789873e-05
2.35000000e+00	1.56969510e-03	5.50612449e-05
2.35500000e+00	1.54337380e-03	5.48116019e-05
2.36000000e+00	1.54757646e-03	5.42196550e-05
2.36500000e+00	1.52581825e-03	5.34018211e-05
2.37000000e+00	1.52475828e-03	5.33820555e-05
2.37500000e+00	1.51624354e-03	5.35724707e-05
2.38000000e+00	1.51583851e-03	5.37817100e-05
2.38500000e+00	1.50867133e-03	5.27895804e-05
2.39000000e+00	1.48891266e-03	5.22514155e-05
2.39500000e+00	1.49180168e-03	5.25669449e-05
2.40000000e+00	1.49168069e-03	5.33663637e-05
2.40500000e+00	1.46502970e-03	5.14162676e-05
2.41000000e+00	1.47204169e-03	5.18316354e-05
2.41500000e+00	1.46714802e-03	5.16017778e-05
2.42000000e+00	1.44783154e-03	5.16934383e-05
2.42500000e+00	1.43524497e-03	5.11493873e-05
2.43000000e+00	1.41641936e-03	5.00077184e-05
2.43500000e+00	1.43577763e-03	5.08977245e-05
2.44000000e+00	1.40479069e-03	4.98107798e-05
2.44500000e+00	1.40596786e-03	5.05344621e-05
2.45000000e+00	1.39951063e-03	4.94071216e-05
2.45500000e+00	1.37086849e-03	4.85485179e-05
2.46000000e+00	1.36157757e-03	4.84732546e-05
2.46500000e+00	1.37163940e-03	4.94798540e-05
2.47000000e+00	1.36337657e-03	4.85565724e-05
2.47500000e+00	1.36428224e-03	4.83395414e-05
2.48000000e+00	1.33499314e-03	4.77921583e-05
2.48500000e+00	1.34468277e-03	4.80258961e-05
2.49000000e+00	1.32353468e-03	4.80155946e-05
2.49500000e+00	1.32761184e-03	4.71099871e-05
2.50000000e+00	1.31346199e-03	4.68071691e-05
2.50500000e+00	1.31666043e-03	4.72252781e-05
2.51000000e+00	1.30886773e-03	4.72359479e-05
2.51500000e+00	1.28099253e-03	4.63494209e-05
2.52000000e+00	1.30333581e-03	4.67099607e-05
2.52500000e+00	1.27205668e-03	4.57784253e-05
2.53000000e+00	1.26364819e-03	4.59411416e-05
2.53500000e+00	1.24439750e-03	4.58255765e-05
2.54000000e+00	1.25816238e-03	4.54972572e-05
2.54500000e+00	1.25037086e-03	4.54513921e-05
2.55000000e+00	1.25035154e-03	4.55992936e-05
2.55500000e+00	1.23432197e-03	4.54417169e-05
2.56000000e+00	1.23043575e-03	4.56017065e-05
2.56500000e+00	1.21256770e-03	4.44237651e-05
2.57000000e+00	1.21486953e-03	4.47384508e-05
2.57500000e+00	1.20985010e-03	4.46562974e-05
2.58000000e+00	1.20044231e-03	4.51178625e-05
2.58500000e+00	1.19523361e-03	4.45434574e-05
2.59000000e+00	1.18936770e-03	4.41485328e-05
2.59500000e+00	1.17788576e-03	4.38684179e-05
2.60000000e+00	1.17479092e-03	4.41351083e-05
2.60500000e+00	1.16764099e-03	4.47681525e-05
2.61000000e+00	1.16038454e-03	5.07547029e-05
2.61500000e+00	1.15171377e-03	5.57894280e-05
2.62000000e+00	1.15102340e-03	6.12711422e-05
2.62500000e+00	1.14651838e-03	6.57750602e-05
2.63000000e+00	1.15173608e-03	7.34187535e-05
2.63500000e+00	1.15126254e-03	8.13060417e-05
2.64000000e+00	1.16281187e-03	9.03856657e-05
2.64500000e+00	1.11372663e-03	9.27338231e-05
2.65000000e+00	1.13681333e-03	1.00411155e-04
2.65500000e+00	1.09437342e-03	1.03124361e-04
2.66000000e+00	1.08355645e-03	1.10038120e-04
2.66500000e+00	1.13620974e-03	1.29345032e-04
2.67000000e+00	1.08082662e-03	1.33789545e-04
2.67500000e+00	1.05814846e-03	1.53112819e-04
2.68000000e+00	1.10126086e-03	1.84756856e-04
2.68500000e+00	1.19188361e-03	2.64583155e-04
2.69000000e+00	1.18241301e-03	4.25255585e-04
2.69500000e+00	0.00000000e+00	0.00000000e+00
2.70000000e+00	0.00000000e+00	0.00000000e+00
