% Filename : WDL7_00012_00222.h5
% Date & Time : 30-Oct-2025 14:59:30
% X-ray Energy (keV) : 13.30001
% Exposure Time (s) : 0.500
% Photodiode Value : 136109.000
% I0 of Sample : 0
% I0 of Standard : 1
% 
% q(A^-1)   I(q)    I(q)_SE
8.40000000e-01	0.00000000e+00	0.00000000e+00
8.45000000e-01	2.82019844e-03	4.94897472e-04
8.50000000e-01	2.69278683e-03	2.49857761e-04
8.55000000e-01	2.64562146e-03	2.16312474e-04
8.60000000e-01	2.62406188e-03	1.85715648e-04
8.65000000e-01	2.57255232e-03	1.67886689e-04
8.70000000e-01	2.64640877e-03	1.64381160e-04
8.75000000e-01	2.60255671e-03	1.55557131e-04
8.80000000e-01	2.60899468e-03	1.50938300e-04
8.85000000e-01	2.66395081e-03	1.45786035e-04
8.90000000e-01	2.62915977e-03	1.40750551e-04
8.95000000e-01	2.64563278e-03	1.37496298e-04
9.00000000e-01	2.68018056e-03	1.38067056e-04
9.05000000e-01	2.65857085e-03	1.30958223e-04
9.10000000e-01	2.70102450e-03	1.30525426e-04
9.15000000e-01	2.68293591e-03	1.27784310e-04
9.20000000e-01	2.68906086e-03	1.27861429e-04
9.25000000e-01	2.72433742e-03	1.23894646e-04
9.30000000e-01	2.69194699e-03	1.21138805e-04
9.35000000e-01	2.68112083e-03	1.18332647e-04
9.40000000e-01	2.72659014e-03	1.20759474e-04
9.45000000e-01	2.71004473e-03	1.17065748e-04
9.50000000e-01	2.73817688e-03	1.16530344e-04
9.55000000e-01	2.70314890e-03	1.12978157e-04
9.60000000e-01	2.70297100e-03	1.13085465e-04
9.65000000e-01	2.72439922e-03	1.12059421e-04
9.70000000e-01	2.72675421e-03	1.10277568e-04
9.75000000e-01	2.74670809e-03	1.09962211e-04
9.80000000e-01	2.74901561e-03	1.09014146e-04
9.85000000e-01	2.74522790e-03	1.08951480e-04
9.90000000e-01	2.75334414e-03	1.06056149e-04
9.95000000e-01	2.76398321e-03	1.05889675e-04
1.00000000e+00	2.77275344e-03	1.05836379e-04
1.00500000e+00	2.75603667e-03	1.05148448e-04
1.01000000e+00	2.77723440e-03	1.03755187e-04
1.01500000e+00	2.75509635e-03	1.01843482e-04
1.02000000e+00	2.76229459e-03	1.02100835e-04
1.02500000e+00	2.74536698e-03	1.00281741e-04
1.03000000e+00	2.73047049e-03	9.94264624e-05
1.03500000e+00	2.76370839e-03	9.91864450e-05
1.04000000e+00	2.72048887e-03	9.71390289e-05
1.04500000e+00	2.72044224e-03	9.70882767e-05
1.05000000e+00	2.74034641e-03	9.72345513e-05
1.05500000e+00	2.72293990e-03	9.50866472e-05
1.06000000e+00	2.70408243e-03	9.41780249e-05
1.06500000e+00	2.71064437e-03	9.44609232e-05
1.07000000e+00	2.72939768e-03	9.50748171e-05
1.07500000e+00	2.72792959e-03	9.42914050e-05
1.08000000e+00	2.75759640e-03	9.47299645e-05
1.08500000e+00	2.76045594e-03	9.48706844e-05
1.09000000e+00	2.76529335e-03	9.56086408e-05
1.09500000e+00	2.75978649e-03	9.36152577e-05
1.10000000e+00	2.77113610e-03	9.45621186e-05
1.10500000e+00	2.79672697e-03	9.55925677e-05
1.11000000e+00	2.76572304e-03	9.48340748e-05
1.11500000e+00	2.79471219e-03	9.49675233e-05
1.12000000e+00	2.81240987e-03	9.59414704e-05
1.12500000e+00	2.82753593e-03	9.63629299e-05
1.13000000e+00	2.80219547e-03	9.65244309e-05
1.13500000e+00	2.81395010e-03	9.58084849e-05
1.14000000e+00	2.81308404e-03	9.55886199e-05
1.14500000e+00	2.85504985e-03	9.77343352e-05
1.15000000e+00	2.83479823e-03	9.75805648e-05
1.15500000e+00	2.86777009e-03	9.76589020e-05
1.16000000e+00	2.86482216e-03	9.78718235e-05
1.16500000e+00	2.87033945e-03	9.79722676e-05
1.17000000e+00	2.87702259e-03	9.94252360e-05
1.17500000e+00	2.88651595e-03	9.83408185e-05
1.18000000e+00	2.86192970e-03	9.79821283e-05
1.18500000e+00	2.88592775e-03	9.86414459e-05
1.19000000e+00	2.88288660e-03	9.95558903e-05
1.19500000e+00	2.89585307e-03	9.88159589e-05
1.20000000e+00	2.89574217e-03	9.93204541e-05
1.20500000e+00	2.89698856e-03	9.91900650e-05
1.21000000e+00	2.87705620e-03	9.98372729e-05
1.21500000e+00	2.90430628e-03	9.92201242e-05
1.22000000e+00	2.93586396e-03	1.00305641e-04
1.22500000e+00	2.90071218e-03	9.95057904e-05
1.23000000e+00	2.89598015e-03	1.00196689e-04
1.23500000e+00	2.92181403e-03	1.00298177e-04
1.24000000e+00	2.93983096e-03	1.00444392e-04
1.24500000e+00	2.95995973e-03	1.02025396e-04
1.25000000e+00	2.91939166e-03	1.01140730e-04
1.25500000e+00	2.94281116e-03	1.00718683e-04
1.26000000e+00	2.92285680e-03	1.00708830e-04
1.26500000e+00	2.92200376e-03	1.00248427e-04
1.27000000e+00	2.92144766e-03	1.01665905e-04
1.27500000e+00	2.95023018e-03	1.01640775e-04
1.28000000e+00	2.96707968e-03	1.01561532e-04
1.28500000e+00	2.92824153e-03	1.00828307e-04
1.29000000e+00	2.93574803e-03	1.02042068e-04
1.29500000e+00	2.93418986e-03	1.00879136e-04
1.30000000e+00	2.93620717e-03	1.00766262e-04
1.30500000e+00	2.95177579e-03	1.01765856e-04
1.31000000e+00	2.92530227e-03	1.02046591e-04
1.31500000e+00	2.94716192e-03	1.01529275e-04
1.32000000e+00	2.94961967e-03	1.01478568e-04
1.32500000e+00	2.92769264e-03	1.01056740e-04
1.33000000e+00	2.94122596e-03	1.02683043e-04
1.33500000e+00	2.94519113e-03	1.01329929e-04
1.34000000e+00	2.94358180e-03	1.01448952e-04
1.34500000e+00	2.93760417e-03	1.01693213e-04
1.35000000e+00	2.94300959e-03	1.02790222e-04
1.35500000e+00	2.94815420e-03	1.01569398e-04
1.36000000e+00	2.93916221e-03	1.01109587e-04
1.36500000e+00	2.93348033e-03	1.01349163e-04
1.37000000e+00	2.93187392e-03	1.02673089e-04
1.37500000e+00	2.94250251e-03	1.01502551e-04
1.38000000e+00	2.95901708e-03	1.02342058e-04
1.38500000e+00	2.94658163e-03	1.02350906e-04
1.39000000e+00	2.91617269e-03	1.02011637e-04
1.39500000e+00	2.92154743e-03	1.00663144e-04
1.40000000e+00	2.95440977e-03	1.04999975e-04
1.40500000e+00	2.93631762e-03	1.12316709e-04
1.41000000e+00	2.89046882e-03	1.15729259e-04
1.41500000e+00	2.88879151e-03	1.19818159e-04
1.42000000e+00	2.85251678e-03	1.23014857e-04
1.42500000e+00	2.84150829e-03	1.26237771e-04
1.43000000e+00	2.87834544e-03	1.32835275e-04
1.43500000e+00	2.83209554e-03	1.34526569e-04
1.44000000e+00	2.79313548e-03	1.37812535e-04
1.44500000e+00	2.79914525e-03	1.41828288e-04
1.45000000e+00	2.86558170e-03	1.40423531e-04
1.45500000e+00	2.88880159e-03	1.27149458e-04
1.46000000e+00	2.90936514e-03	1.25051273e-04
1.46500000e+00	2.86845109e-03	1.21018558e-04
1.47000000e+00	2.87609201e-03	1.21253214e-04
1.47500000e+00	2.89824195e-03	1.18494159e-04
1.48000000e+00	2.90078199e-03	1.17232424e-04
1.48500000e+00	2.88800168e-03	1.17014295e-04
1.49000000e+00	2.90289885e-03	1.17857270e-04
1.49500000e+00	2.88692880e-03	1.14593327e-04
1.50000000e+00	2.88437356e-03	1.14130509e-04
1.50500000e+00	2.89369137e-03	1.15051726e-04
1.51000000e+00	2.91331783e-03	1.16065102e-04
1.51500000e+00	2.90037015e-03	1.13598168e-04
1.52000000e+00	2.90338441e-03	1.13426070e-04
1.52500000e+00	2.89515240e-03	1.12925949e-04
1.53000000e+00	2.90671242e-03	1.14025697e-04
1.53500000e+00	2.90970712e-03	1.10893095e-04
1.54000000e+00	2.89243265e-03	1.10041495e-04
1.54500000e+00	2.87979613e-03	1.09338117e-04
1.55000000e+00	2.87748205e-03	1.08959835e-04
1.55500000e+00	2.86700153e-03	1.06146150e-04
1.56000000e+00	2.84920274e-03	1.05756881e-04
1.56500000e+00	2.83904656e-03	1.04829788e-04
1.57000000e+00	2.82609490e-03	1.03630404e-04
1.57500000e+00	2.81265592e-03	1.01214448e-04
1.58000000e+00	2.80764113e-03	1.00908768e-04
1.58500000e+00	2.82059173e-03	1.01344390e-04
1.59000000e+00	2.77894719e-03	9.98644414e-05
1.59500000e+00	2.77466161e-03	9.78820906e-05
1.60000000e+00	2.77360566e-03	9.76926725e-05
1.60500000e+00	2.77761785e-03	9.79273311e-05
1.61000000e+00	2.76803162e-03	9.71544395e-05
1.61500000e+00	2.76170352e-03	9.60693957e-05
1.62000000e+00	2.75105525e-03	9.61358533e-05
1.62500000e+00	2.72583770e-03	9.63653573e-05
1.63000000e+00	2.72207332e-03	9.51040190e-05
1.63500000e+00	2.71742984e-03	9.50170274e-05
1.64000000e+00	2.75234015e-03	9.62857960e-05
1.64500000e+00	2.73512819e-03	9.67509121e-05
1.65000000e+00	2.71331998e-03	9.49952849e-05
1.65500000e+00	2.70717860e-03	9.45479793e-05
1.66000000e+00	2.72253865e-03	9.51583138e-05
1.66500000e+00	2.70272066e-03	9.61500676e-05
1.67000000e+00	2.67568930e-03	9.31775719e-05
1.67500000e+00	2.69034304e-03	9.39172496e-05
1.68000000e+00	2.67017269e-03	9.35469836e-05
1.68500000e+00	2.67175109e-03	9.51649951e-05
1.69000000e+00	2.65617387e-03	9.27759285e-05
1.69500000e+00	2.65711042e-03	9.25985293e-05
1.70000000e+00	2.65950560e-03	9.37399307e-05
1.70500000e+00	2.64736450e-03	9.37545922e-05
1.71000000e+00	2.64156215e-03	9.23348030e-05
1.71500000e+00	2.64515114e-03	9.24034651e-05
1.72000000e+00	2.63139867e-03	9.26232059e-05
1.72500000e+00	2.63278685e-03	9.32956027e-05
1.73000000e+00	2.61523755e-03	9.14058380e-05
1.73500000e+00	2.62399785e-03	9.19306932e-05
1.74000000e+00	2.60892899e-03	9.16506416e-05
1.74500000e+00	2.60111591e-03	9.24662185e-05
1.75000000e+00	2.59530767e-03	9.04748240e-05
1.75500000e+00	2.57794333e-03	9.04288596e-05
1.76000000e+00	2.55625634e-03	8.96750581e-05
1.76500000e+00	2.56420914e-03	9.11150182e-05
1.77000000e+00	2.56000122e-03	8.94518042e-05
1.77500000e+00	2.56038337e-03	8.97633104e-05
1.78000000e+00	2.55189312e-03	8.97095950e-05
1.78500000e+00	2.53528680e-03	9.01092451e-05
1.79000000e+00	2.54389438e-03	8.88821145e-05
1.79500000e+00	2.52399804e-03	8.83653491e-05
1.80000000e+00	2.52564678e-03	8.89197323e-05
1.80500000e+00	2.50482951e-03	8.87558716e-05
1.81000000e+00	2.50299511e-03	8.74917592e-05
1.81500000e+00	2.49605599e-03	8.72100990e-05
1.82000000e+00	2.49748823e-03	8.79441897e-05
1.82500000e+00	2.49048446e-03	8.81924428e-05
1.83000000e+00	2.49153518e-03	8.70904041e-05
1.83500000e+00	2.48013906e-03	8.69212530e-05
1.84000000e+00	2.47277613e-03	8.71348060e-05
1.84500000e+00	2.49413073e-03	8.83054443e-05
1.85000000e+00	2.46055949e-03	8.62592420e-05
1.85500000e+00	2.44904622e-03	8.57122389e-05
1.86000000e+00	2.45560391e-03	8.66614562e-05
1.86500000e+00	2.44816806e-03	8.65743985e-05
1.87000000e+00	2.42554222e-03	8.48210004e-05
1.87500000e+00	2.40296910e-03	8.43495685e-05
1.88000000e+00	2.43790258e-03	8.58816824e-05
1.88500000e+00	2.42536360e-03	8.60167140e-05
1.89000000e+00	2.40738916e-03	8.42117391e-05
1.89500000e+00	2.41375713e-03	8.48710174e-05
1.90000000e+00	2.39511560e-03	8.44369955e-05
1.90500000e+00	2.39919275e-03	8.46681020e-05
1.91000000e+00	2.36431969e-03	8.29364277e-05
1.91500000e+00	2.37396111e-03	8.33044631e-05
1.92000000e+00	2.35007451e-03	8.28110800e-05
1.92500000e+00	2.34862987e-03	8.29534436e-05
1.93000000e+00	2.35260868e-03	8.23354202e-05
1.93500000e+00	2.34882846e-03	8.24421088e-05
1.94000000e+00	2.33402685e-03	8.25850816e-05
1.94500000e+00	2.31850510e-03	8.17582664e-05
1.95000000e+00	2.31893887e-03	8.10241958e-05
1.95500000e+00	2.30809040e-03	8.10077395e-05
1.96000000e+00	2.29624391e-03	8.10687260e-05
1.96500000e+00	2.28708798e-03	8.07572507e-05
1.97000000e+00	2.30211372e-03	8.03803502e-05
1.97500000e+00	2.30194653e-03	8.09092711e-05
1.98000000e+00	2.26680691e-03	7.99788552e-05
1.98500000e+00	2.27405994e-03	8.03795597e-05
1.99000000e+00	2.25254325e-03	7.86296464e-05
1.99500000e+00	2.24729983e-03	7.88714304e-05
2.00000000e+00	2.25695491e-03	7.97782076e-05
2.00500000e+00	2.26681480e-03	8.02787818e-05
2.01000000e+00	2.23093332e-03	8.67593424e-05
2.01500000e+00	2.21257127e-03	9.13405118e-05
2.02000000e+00	2.20487458e-03	9.69832865e-05
2.02500000e+00	2.19358883e-03	1.00265774e-04
2.03000000e+00	2.18687471e-03	1.05854371e-04
2.03500000e+00	2.17718847e-03	1.10041760e-04
2.04000000e+00	2.12576782e-03	1.12494947e-04
2.04500000e+00	2.11592223e-03	1.17715834e-04
2.05000000e+00	2.10511469e-03	1.22976771e-04
2.05500000e+00	2.15744646e-03	1.23295926e-04
2.06000000e+00	2.16120730e-03	1.07700780e-04
2.06500000e+00	2.15899762e-03	1.02688574e-04
2.07000000e+00	2.11922503e-03	9.55025520e-05
2.07500000e+00	2.12588104e-03	9.36438617e-05
2.08000000e+00	2.12035636e-03	9.31546810e-05
2.08500000e+00	2.14449564e-03	9.34091209e-05
2.09000000e+00	2.13439858e-03	9.02220214e-05
2.09500000e+00	2.10276642e-03	8.79171673e-05
2.10000000e+00	2.13413124e-03	8.85588986e-05
2.10500000e+00	2.10495952e-03	8.70874598e-05
2.11000000e+00	2.10252622e-03	8.39342396e-05
2.11500000e+00	2.08225555e-03	8.21981908e-05
2.12000000e+00	2.05720825e-03	8.08133970e-05
2.12500000e+00	2.06010504e-03	8.06687288e-05
2.13000000e+00	2.03781393e-03	7.65307354e-05
2.13500000e+00	2.00998028e-03	7.46730630e-05
2.14000000e+00	1.98559064e-03	7.30644901e-05
2.14500000e+00	2.01031881e-03	7.41476119e-05
2.15000000e+00	1.98224100e-03	7.07553724e-05
2.15500000e+00	1.98065295e-03	7.08048540e-05
2.16000000e+00	1.98835724e-03	7.07612438e-05
2.16500000e+00	1.96882113e-03	7.04936473e-05
2.17000000e+00	1.94367940e-03	6.79073181e-05
2.17500000e+00	1.94762891e-03	6.81985752e-05
2.18000000e+00	1.94099238e-03	6.82017225e-05
2.18500000e+00	1.92790278e-03	6.81243563e-05
2.19000000e+00	1.90337473e-03	6.70488597e-05
2.19500000e+00	1.91052248e-03	6.69000347e-05
2.20000000e+00	1.89312880e-03	6.64602035e-05
2.20500000e+00	1.88569139e-03	6.64513889e-05
2.21000000e+00	1.86262314e-03	6.59268218e-05
2.21500000e+00	1.86120819e-03	6.51657275e-05
2.22000000e+00	1.84565310e-03	6.45924272e-05
2.22500000e+00	1.86393747e-03	6.57475893e-05
2.23000000e+00	1.83095651e-03	6.49424288e-05
2.23500000e+00	1.81300069e-03	6.34113019e-05
2.24000000e+00	1.83233807e-03	6.41304449e-05
2.24500000e+00	1.80984617e-03	6.37804640e-05
2.25000000e+00	1.80009359e-03	6.38840051e-05
2.25500000e+00	1.75918913e-03	6.13941935e-05
2.26000000e+00	1.77094858e-03	6.20905977e-05
2.26500000e+00	1.74885461e-03	6.15316618e-05
2.27000000e+00	1.73231673e-03	6.17978014e-05
2.27500000e+00	1.72834467e-03	6.03827733e-05
2.28000000e+00	1.72039867e-03	6.01496797e-05
2.28500000e+00	1.69973608e-03	5.98093190e-05
2.29000000e+00	1.71052952e-03	6.05306745e-05
2.29500000e+00	1.69395776e-03	5.96789429e-05
2.30000000e+00	1.68724381e-03	5.89349244e-05
2.30500000e+00	1.65411007e-03	5.80064936e-05
2.31000000e+00	1.65574403e-03	5.82927917e-05
2.31500000e+00	1.63197402e-03	5.78742594e-05
2.32000000e+00	1.62995901e-03	5.66592612e-05
2.32500000e+00	1.62321270e-03	5.69418488e-05
2.33000000e+00	1.62151633e-03	5.69752725e-05
2.33500000e+00	1.59662180e-03	5.66588765e-05
2.34000000e+00	1.58237520e-03	5.52375902e-05
2.34500000e+00	1.59113431e-03	5.55684457e-05
2.35000000e+00	1.56838965e-03	5.50175983e-05
2.35500000e+00	1.54752166e-03	5.49696536e-05
2.36000000e+00	1.54844632e-03	5.42223531e-05
2.36500000e+00	1.52474504e-03	5.33727753e-05
2.37000000e+00	1.53024339e-03	5.36213579e-05
2.37500000e+00	1.52487660e-03	5.38069533e-05
2.38000000e+00	1.50392708e-03	5.33258905e-05
2.38500000e+00	1.49956399e-03	5.24312305e-05
2.39000000e+00	1.49286440e-03	5.24209003e-05
2.39500000e+00	1.50557210e-03	5.30897465e-05
2.40000000e+00	1.47589366e-03	5.28884009e-05
2.40500000e+00	1.46272635e-03	5.13533797e-05
2.41000000e+00	1.46253374e-03	5.14979322e-05
2.41500000e+00	1.44179693e-03	5.06971303e-05
2.42000000e+00	1.44842273e-03	5.17089466e-05
2.42500000e+00	1.43516292e-03	5.11904651e-05
2.43000000e+00	1.43241541e-03	5.05659955e-05
2.43500000e+00	1.41836778e-03	5.01517016e-05
2.44000000e+00	1.42513563e-03	5.06128512e-05
2.44500000e+00	1.41334081e-03	5.07702193e-05
2.45000000e+00	1.37815042e-03	4.86218116e-05
2.45500000e+00	1.38456533e-03	4.90199719e-05
2.46000000e+00	1.36980272e-03	4.87126740e-05
2.46500000e+00	1.35607031e-03	4.88603223e-05
2.47000000e+00	1.34448269e-03	4.79814839e-05
2.47500000e+00	1.33775759e-03	4.73792033e-05
2.48000000e+00	1.33976643e-03	4.78844471e-05
2.48500000e+00	1.32500791e-03	4.73065300e-05
2.49000000e+00	1.31530437e-03	4.76797687e-05
2.49500000e+00	1.30629112e-03	4.64395416e-05
2.50000000e+00	1.29284040e-03	4.61313087e-05
2.50500000e+00	1.30744873e-03	4.68819187e-05
2.51000000e+00	1.29178783e-03	4.65661676e-05
2.51500000e+00	1.27933661e-03	4.62334072e-05
2.52000000e+00	1.28943778e-03	4.62226424e-05
2.52500000e+00	1.27029651e-03	4.57210080e-05
2.53000000e+00	1.25039369e-03	4.54206026e-05
2.53500000e+00	1.27136956e-03	4.67729729e-05
2.54000000e+00	1.25486400e-03	4.54036255e-05
2.54500000e+00	1.24487525e-03	4.52763516e-05
2.55000000e+00	1.25057029e-03	4.57143325e-05
2.55500000e+00	1.22803697e-03	4.52679799e-05
2.56000000e+00	1.22382228e-03	4.52616354e-05
2.56500000e+00	1.21949902e-03	4.47366381e-05
2.57000000e+00	1.20669981e-03	4.44265745e-05
2.57500000e+00	1.21430843e-03	4.48503536e-05
2.58000000e+00	1.19667861e-03	4.49551369e-05
2.58500000e+00	1.18705081e-03	4.41687038e-05
2.59000000e+00	1.18062065e-03	4.38176192e-05
2.59500000e+00	1.16898833e-03	4.36337656e-05
2.60000000e+00	1.16889039e-03	4.39299936e-05
2.60500000e+00	1.18312581e-03	4.53785171e-05
2.61000000e+00	1.17169963e-03	5.11674249e-05
2.61500000e+00	1.14471682e-03	5.53997763e-05
2.62000000e+00	1.13149717e-03	6.02956214e-05
2.62500000e+00	1.13966145e-03	6.56673394e-05
2.63000000e+00	1.15903666e-03	7.36848471e-05
2.63500000e+00	1.15315498e-03	8.12707485e-05
2.64000000e+00	1.12316980e-03	8.74235314e-05
2.64500000e+00	1.14766927e-03	9.52434780e-05
2.65000000e+00	1.13930098e-03	1.00359905e-04
2.65500000e+00	1.11851979e-03	1.06017778e-04
2.66000000e+00	1.13590645e-03	1.15106656e-04
2.66500000e+00	1.06758887e-03	1.21271292e-04
2.67000000e+00	1.03717533e-03	1.28449155e-04
2.67500000e+00	1.03063503e-03	1.48323462e-04
2.68000000e+00	1.12056629e-03	1.87157152e-04
2.68500000e+00	1.13272401e-03	2.51118379e-04
2.69000000e+00	1.01595751e-03	3.67923220e-04
2.69500000e+00	0.00000000e+00	0.00000000e+00
2.70000000e+00	0.00000000e+00	0.00000000e+00
