% Filename : WDL7c_00013_00001.h5
% Date & Time : 30-Oct-2025 16:13:12
% X-ray Energy (keV) : 13.30001
% Exposure Time (s) : 0.500
% Photodiode Value : 140117.000
% I0 of Sample : 0
% I0 of Standard : 1
% 
% q(A^-1)   I(q)    I(q)_SE
8.40000000e-01	0.00000000e+00	0.00000000e+00
8.45000000e-01	2.86244617e-03	5.01373337e-04
8.50000000e-01	2.68723574e-03	2.49309564e-04
8.55000000e-01	2.61381342e-03	2.14012385e-04
8.60000000e-01	2.65065807e-03	1.87454815e-04
8.65000000e-01	2.64158850e-03	1.72126048e-04
8.70000000e-01	2.67310291e-03	1.66167501e-04
8.75000000e-01	2.70207527e-03	1.61625450e-04
8.80000000e-01	2.69265194e-03	1.55436318e-04
8.85000000e-01	2.70673378e-03	1.48171575e-04
8.90000000e-01	2.71228544e-03	1.45156771e-04
8.95000000e-01	2.68807210e-03	1.39746696e-04
9.00000000e-01	2.69778139e-03	1.39002654e-04
9.05000000e-01	2.71039798e-03	1.33367008e-04
9.10000000e-01	2.68525025e-03	1.29686345e-04
9.15000000e-01	2.72345442e-03	1.29666639e-04
9.20000000e-01	2.72551813e-03	1.29442617e-04
9.25000000e-01	2.72650387e-03	1.23928517e-04
9.30000000e-01	2.72506591e-03	1.22659251e-04
9.35000000e-01	2.73702514e-03	1.20770305e-04
9.40000000e-01	2.75644140e-03	1.21930011e-04
9.45000000e-01	2.75079432e-03	1.18777136e-04
9.50000000e-01	2.76801487e-03	1.17740142e-04
9.55000000e-01	2.77804367e-03	1.16129738e-04
9.60000000e-01	2.76233103e-03	1.15461276e-04
9.65000000e-01	2.78007441e-03	1.14299388e-04
9.70000000e-01	2.77487849e-03	1.12205057e-04
9.75000000e-01	2.75492408e-03	1.10198577e-04
9.80000000e-01	2.80400874e-03	1.11156864e-04
9.85000000e-01	2.79347545e-03	1.10830848e-04
9.90000000e-01	2.77544054e-03	1.06837619e-04
9.95000000e-01	2.78773885e-03	1.06800482e-04
1.00000000e+00	2.81696571e-03	1.07419353e-04
1.00500000e+00	2.80928926e-03	1.07112188e-04
1.01000000e+00	2.82159371e-03	1.05310415e-04
1.01500000e+00	2.81358351e-03	1.03955927e-04
1.02000000e+00	2.82126828e-03	1.04194525e-04
1.02500000e+00	2.81513734e-03	1.02818324e-04
1.03000000e+00	2.79946620e-03	1.01796804e-04
1.03500000e+00	2.79919781e-03	1.00411504e-04
1.04000000e+00	2.80516501e-03	9.99473850e-05
1.04500000e+00	2.81013529e-03	1.00251739e-04
1.05000000e+00	2.79996098e-03	9.92374964e-05
1.05500000e+00	2.77051466e-03	9.66731278e-05
1.06000000e+00	2.79850195e-03	9.74217150e-05
1.06500000e+00	2.80370671e-03	9.76708025e-05
1.07000000e+00	2.80568290e-03	9.76163802e-05
1.07500000e+00	2.81114296e-03	9.70218450e-05
1.08000000e+00	2.79248645e-03	9.57761597e-05
1.08500000e+00	2.81275695e-03	9.66199488e-05
1.09000000e+00	2.80886102e-03	9.71411415e-05
1.09500000e+00	2.82060684e-03	9.55267674e-05
1.10000000e+00	2.82723117e-03	9.63192938e-05
1.10500000e+00	2.86389313e-03	9.79510500e-05
1.11000000e+00	2.85561210e-03	9.76927524e-05
1.11500000e+00	2.86414735e-03	9.72481073e-05
1.12000000e+00	2.88001046e-03	9.82396756e-05
1.12500000e+00	2.88202275e-03	9.79958316e-05
1.13000000e+00	2.87647472e-03	9.90341469e-05
1.13500000e+00	2.88799019e-03	9.82957907e-05
1.14000000e+00	2.90073525e-03	9.84398488e-05
1.14500000e+00	2.91530842e-03	9.97340957e-05
1.15000000e+00	2.90296071e-03	9.98759631e-05
1.15500000e+00	2.93697421e-03	9.99610533e-05
1.16000000e+00	2.94299676e-03	1.00554762e-04
1.16500000e+00	2.92675133e-03	9.98474351e-05
1.17000000e+00	2.93952618e-03	1.01621358e-04
1.17500000e+00	2.96153542e-03	1.00781261e-04
1.18000000e+00	2.94274035e-03	1.00521927e-04
1.18500000e+00	2.96216199e-03	1.01190125e-04
1.19000000e+00	2.97546260e-03	1.02684147e-04
1.19500000e+00	2.94856930e-03	1.00552483e-04
1.20000000e+00	2.98210531e-03	1.02252617e-04
1.20500000e+00	2.97332461e-03	1.01672042e-04
1.21000000e+00	2.97411046e-03	1.03107366e-04
1.21500000e+00	2.98520022e-03	1.01819148e-04
1.22000000e+00	2.98300592e-03	1.01825967e-04
1.22500000e+00	2.99083602e-03	1.02536412e-04
1.23000000e+00	2.99031915e-03	1.03309184e-04
1.23500000e+00	2.98205402e-03	1.02339121e-04
1.24000000e+00	3.01629846e-03	1.03020338e-04
1.24500000e+00	3.00331798e-03	1.03439915e-04
1.25000000e+00	2.99179679e-03	1.03618489e-04
1.25500000e+00	3.02687239e-03	1.03435300e-04
1.26000000e+00	3.01553635e-03	1.03664050e-04
1.26500000e+00	3.02485951e-03	1.03739863e-04
1.27000000e+00	3.00605425e-03	1.04661457e-04
1.27500000e+00	3.02213364e-03	1.04043580e-04
1.28000000e+00	3.01581816e-03	1.03267566e-04
1.28500000e+00	3.01455511e-03	1.03785900e-04
1.29000000e+00	3.03159101e-03	1.05207333e-04
1.29500000e+00	3.01636663e-03	1.03673573e-04
1.30000000e+00	3.00584087e-03	1.03074958e-04
1.30500000e+00	3.01695606e-03	1.03960008e-04
1.31000000e+00	3.03034230e-03	1.05628572e-04
1.31500000e+00	3.02471623e-03	1.04170212e-04
1.32000000e+00	3.02316664e-03	1.03929967e-04
1.32500000e+00	3.04809295e-03	1.05088711e-04
1.33000000e+00	3.02010769e-03	1.05370895e-04
1.33500000e+00	3.03726126e-03	1.04522042e-04
1.34000000e+00	3.04315021e-03	1.04889512e-04
1.34500000e+00	3.03028369e-03	1.04797550e-04
1.35000000e+00	3.03559982e-03	1.05956288e-04
1.35500000e+00	3.03621236e-03	1.04508974e-04
1.36000000e+00	3.05232232e-03	1.05005184e-04
1.36500000e+00	3.03091040e-03	1.04549248e-04
1.37000000e+00	3.03340207e-03	1.06227175e-04
1.37500000e+00	3.00858839e-03	1.03791698e-04
1.38000000e+00	3.02243935e-03	1.04366583e-04
1.38500000e+00	3.02803353e-03	1.05192879e-04
1.39000000e+00	3.02238153e-03	1.05680732e-04
1.39500000e+00	3.02667791e-03	1.04380425e-04
1.40000000e+00	3.08184886e-03	1.09282294e-04
1.40500000e+00	3.00926332e-03	1.14974815e-04
1.41000000e+00	2.98369762e-03	1.19409464e-04
1.41500000e+00	2.96158733e-03	1.22859324e-04
1.42000000e+00	2.97500749e-03	1.28153436e-04
1.42500000e+00	2.97529737e-03	1.32154480e-04
1.43000000e+00	2.94689244e-03	1.35897478e-04
1.43500000e+00	2.91701261e-03	1.38505052e-04
1.44000000e+00	2.89872906e-03	1.43124616e-04
1.44500000e+00	2.89319121e-03	1.46305894e-04
1.45000000e+00	2.95820442e-03	1.44975693e-04
1.45500000e+00	2.97589853e-03	1.30834143e-04
1.46000000e+00	2.98799054e-03	1.28357966e-04
1.46500000e+00	2.97929028e-03	1.25640989e-04
1.47000000e+00	2.97775417e-03	1.25249888e-04
1.47500000e+00	2.97486190e-03	1.21563954e-04
1.48000000e+00	2.99551656e-03	1.21126220e-04
1.48500000e+00	2.99516593e-03	1.21182708e-04
1.49000000e+00	2.97460025e-03	1.20594417e-04
1.49500000e+00	3.00576325e-03	1.19159196e-04
1.50000000e+00	3.00716302e-03	1.18860907e-04
1.50500000e+00	3.02230538e-03	1.20090562e-04
1.51000000e+00	3.00771609e-03	1.19650665e-04
1.51500000e+00	3.00463348e-03	1.17718192e-04
1.52000000e+00	3.03727391e-03	1.18464944e-04
1.52500000e+00	3.02950193e-03	1.18063996e-04
1.53000000e+00	3.00486538e-03	1.17913051e-04
1.53500000e+00	3.01870576e-03	1.14972694e-04
1.54000000e+00	3.01720997e-03	1.14787971e-04
1.54500000e+00	2.97622831e-03	1.13013059e-04
1.55000000e+00	2.97349514e-03	1.12566788e-04
1.55500000e+00	2.96517442e-03	1.09765754e-04
1.56000000e+00	2.95883180e-03	1.09814531e-04
1.56500000e+00	2.95131843e-03	1.08884348e-04
1.57000000e+00	2.91870354e-03	1.06924158e-04
1.57500000e+00	2.90395803e-03	1.04478936e-04
1.58000000e+00	2.91578416e-03	1.04650817e-04
1.58500000e+00	2.89490567e-03	1.03962549e-04
1.59000000e+00	2.91723857e-03	1.04813130e-04
1.59500000e+00	2.87646532e-03	1.01402342e-04
1.60000000e+00	2.87505227e-03	1.01231591e-04
1.60500000e+00	2.88483032e-03	1.01647076e-04
1.61000000e+00	2.88542304e-03	1.01282582e-04
1.61500000e+00	2.83183914e-03	9.84966103e-05
1.62000000e+00	2.85562402e-03	9.96972596e-05
1.62500000e+00	2.83613597e-03	1.00148487e-04
1.63000000e+00	2.83642339e-03	9.91196431e-05
1.63500000e+00	2.86449087e-03	1.00071656e-04
1.64000000e+00	2.83476641e-03	9.90676423e-05
1.64500000e+00	2.83140675e-03	1.00056121e-04
1.65000000e+00	2.82460238e-03	9.87910391e-05
1.65500000e+00	2.82479475e-03	9.86132296e-05
1.66000000e+00	2.81257181e-03	9.83833777e-05
1.66500000e+00	2.80677944e-03	9.97267154e-05
1.67000000e+00	2.82765732e-03	9.84082434e-05
1.67500000e+00	2.79990188e-03	9.76738249e-05
1.68000000e+00	2.78610298e-03	9.75123870e-05
1.68500000e+00	2.79195041e-03	9.93402221e-05
1.69000000e+00	2.77209391e-03	9.67517913e-05
1.69500000e+00	2.76993451e-03	9.64642930e-05
1.70000000e+00	2.76584702e-03	9.74118299e-05
1.70500000e+00	2.74321618e-03	9.70667003e-05
1.71000000e+00	2.75919542e-03	9.64261048e-05
1.71500000e+00	2.74101883e-03	9.56667877e-05
1.72000000e+00	2.72620306e-03	9.59676757e-05
1.72500000e+00	2.73428828e-03	9.68489239e-05
1.73000000e+00	2.72832077e-03	9.52849675e-05
1.73500000e+00	2.69255104e-03	9.42720278e-05
1.74000000e+00	2.69483082e-03	9.46715954e-05
1.74500000e+00	2.70959753e-03	9.62371490e-05
1.75000000e+00	2.68353449e-03	9.35555003e-05
1.75500000e+00	2.68292463e-03	9.41625885e-05
1.76000000e+00	2.67597034e-03	9.38914848e-05
1.76500000e+00	2.68709264e-03	9.54697908e-05
1.77000000e+00	2.67577806e-03	9.34800488e-05
1.77500000e+00	2.66348251e-03	9.32776108e-05
1.78000000e+00	2.67302307e-03	9.39038533e-05
1.78500000e+00	2.64471140e-03	9.38525599e-05
1.79000000e+00	2.64690929e-03	9.24169339e-05
1.79500000e+00	2.64157719e-03	9.24436982e-05
1.80000000e+00	2.62736856e-03	9.25013527e-05
1.80500000e+00	2.62756132e-03	9.31480131e-05
1.81000000e+00	2.63124630e-03	9.18586809e-05
1.81500000e+00	2.61016608e-03	9.12210145e-05
1.82000000e+00	2.60739082e-03	9.16935196e-05
1.82500000e+00	2.61435020e-03	9.25204229e-05
1.83000000e+00	2.60300912e-03	9.09391787e-05
1.83500000e+00	2.59375018e-03	9.08025266e-05
1.84000000e+00	2.58321309e-03	9.09593739e-05
1.84500000e+00	2.55973129e-03	9.05841676e-05
1.85000000e+00	2.57897965e-03	9.02681659e-05
1.85500000e+00	2.54619474e-03	8.91437727e-05
1.86000000e+00	2.54857785e-03	8.98824317e-05
1.86500000e+00	2.55326731e-03	9.02745191e-05
1.87000000e+00	2.54589004e-03	8.90033018e-05
1.87500000e+00	2.53657419e-03	8.89222659e-05
1.88000000e+00	2.51594697e-03	8.86342958e-05
1.88500000e+00	2.49112925e-03	8.82677573e-05
1.89000000e+00	2.50762677e-03	8.76124889e-05
1.89500000e+00	2.48854199e-03	8.74254842e-05
1.90000000e+00	2.48029722e-03	8.73923978e-05
1.90500000e+00	2.48956396e-03	8.77350873e-05
1.91000000e+00	2.46809639e-03	8.64539168e-05
1.91500000e+00	2.46233021e-03	8.63297179e-05
1.92000000e+00	2.44668271e-03	8.62503147e-05
1.92500000e+00	2.45023054e-03	8.64706926e-05
1.93000000e+00	2.43402631e-03	8.51030647e-05
1.93500000e+00	2.43270782e-03	8.54032491e-05
1.94000000e+00	2.42178295e-03	8.55886215e-05
1.94500000e+00	2.39975508e-03	8.45952344e-05
1.95000000e+00	2.39968626e-03	8.38757282e-05
1.95500000e+00	2.37885145e-03	8.34707380e-05
1.96000000e+00	2.37864585e-03	8.39633661e-05
1.96500000e+00	2.38937097e-03	8.43647353e-05
1.97000000e+00	2.40982264e-03	8.41216989e-05
1.97500000e+00	2.38340221e-03	8.37226822e-05
1.98000000e+00	2.36639805e-03	8.34678903e-05
1.98500000e+00	2.36289228e-03	8.34793663e-05
1.99000000e+00	2.34466083e-03	8.18526751e-05
1.99500000e+00	2.34409258e-03	8.21877612e-05
2.00000000e+00	2.33821796e-03	8.26571789e-05
2.00500000e+00	2.36148376e-03	8.35287248e-05
2.01000000e+00	2.32897344e-03	9.04073441e-05
2.01500000e+00	2.33385691e-03	9.61229416e-05
2.02000000e+00	2.29431431e-03	1.00809567e-04
2.02500000e+00	2.29081230e-03	1.04618068e-04
2.03000000e+00	2.27675355e-03	1.10144961e-04
2.03500000e+00	2.25955386e-03	1.14156143e-04
2.04000000e+00	2.24354403e-03	1.18612160e-04
2.04500000e+00	2.22018594e-03	1.23305827e-04
2.05000000e+00	2.18596771e-03	1.27658092e-04
2.05500000e+00	2.24042044e-03	1.27966960e-04
2.06000000e+00	2.24028694e-03	1.11543860e-04
2.06500000e+00	2.25039730e-03	1.07033593e-04
2.07000000e+00	2.26339882e-03	1.01809340e-04
2.07500000e+00	2.21807227e-03	9.75922108e-05
2.08000000e+00	2.22880112e-03	9.79341932e-05
2.08500000e+00	2.21292717e-03	9.64125482e-05
2.09000000e+00	2.22627099e-03	9.40328715e-05
2.09500000e+00	2.23419635e-03	9.32989523e-05
2.10000000e+00	2.22281493e-03	9.22261723e-05
2.10500000e+00	2.20524273e-03	9.11582368e-05
2.11000000e+00	2.18399788e-03	8.70628414e-05
2.11500000e+00	2.15599495e-03	8.50929408e-05
2.12000000e+00	2.16121775e-03	8.48640003e-05
2.12500000e+00	2.15100590e-03	8.42119451e-05
2.13000000e+00	2.12559786e-03	7.97499900e-05
2.13500000e+00	2.09216921e-03	7.76202468e-05
2.14000000e+00	2.08710445e-03	7.67393426e-05
2.14500000e+00	2.06739147e-03	7.61996467e-05
2.15000000e+00	2.06046191e-03	7.34619849e-05
2.15500000e+00	2.05399771e-03	7.34256887e-05
2.16000000e+00	2.03953952e-03	7.25028384e-05
2.16500000e+00	2.03060327e-03	7.26411982e-05
2.17000000e+00	2.03942304e-03	7.12389941e-05
2.17500000e+00	2.02900055e-03	7.10395025e-05
2.18000000e+00	2.01975136e-03	7.08490464e-05
2.18500000e+00	2.00826198e-03	7.09100829e-05
2.19000000e+00	2.00103281e-03	7.03994536e-05
2.19500000e+00	1.98401309e-03	6.94561056e-05
2.20000000e+00	1.96862450e-03	6.90997255e-05
2.20500000e+00	1.96750496e-03	6.92258910e-05
2.21000000e+00	1.96065582e-03	6.93447751e-05
2.21500000e+00	1.96262190e-03	6.86965948e-05
2.22000000e+00	1.94644151e-03	6.80109700e-05
2.22500000e+00	1.92701793e-03	6.79148772e-05
2.23000000e+00	1.91139921e-03	6.76782140e-05
2.23500000e+00	1.89573204e-03	6.62690956e-05
2.24000000e+00	1.89791068e-03	6.63866808e-05
2.24500000e+00	1.88066190e-03	6.62117670e-05
2.25000000e+00	1.86499031e-03	6.62874331e-05
2.25500000e+00	1.84937993e-03	6.45254589e-05
2.26000000e+00	1.82874069e-03	6.40237991e-05
2.26500000e+00	1.83599526e-03	6.44281702e-05
2.27000000e+00	1.81028814e-03	6.45280668e-05
2.27500000e+00	1.80927427e-03	6.31571118e-05
2.28000000e+00	1.79712260e-03	6.27312122e-05
2.28500000e+00	1.79081291e-03	6.29591653e-05
2.29000000e+00	1.75358826e-03	6.19817576e-05
2.29500000e+00	1.75662684e-03	6.19309451e-05
2.30000000e+00	1.74013379e-03	6.07758331e-05
2.30500000e+00	1.71485528e-03	6.00141946e-05
2.31000000e+00	1.71743802e-03	6.04937905e-05
2.31500000e+00	1.72201045e-03	6.11375619e-05
2.32000000e+00	1.71238571e-03	5.95165082e-05
2.32500000e+00	1.68574669e-03	5.90531565e-05
2.33000000e+00	1.67557629e-03	5.88491700e-05
2.33500000e+00	1.67207767e-03	5.93023970e-05
2.34000000e+00	1.66461837e-03	5.81418017e-05
2.34500000e+00	1.64814190e-03	5.74930704e-05
2.35000000e+00	1.63556187e-03	5.72530181e-05
2.35500000e+00	1.63849548e-03	5.81549946e-05
2.36000000e+00	1.61719316e-03	5.66665587e-05
2.36500000e+00	1.61901469e-03	5.65602745e-05
2.37000000e+00	1.58893246e-03	5.56158684e-05
2.37500000e+00	1.59591161e-03	5.63552567e-05
2.38000000e+00	1.58179463e-03	5.60845735e-05
2.38500000e+00	1.57936874e-03	5.52512446e-05
2.39000000e+00	1.56768470e-03	5.50039551e-05
2.39500000e+00	1.56248444e-03	5.51579799e-05
2.40000000e+00	1.54431812e-03	5.52319782e-05
2.40500000e+00	1.53212754e-03	5.37325484e-05
2.41000000e+00	1.54380854e-03	5.42889491e-05
2.41500000e+00	1.50415445e-03	5.29215602e-05
2.42000000e+00	1.49823883e-03	5.34491289e-05
2.42500000e+00	1.50628657e-03	5.36588619e-05
2.43000000e+00	1.49448102e-03	5.26685791e-05
2.43500000e+00	1.49346818e-03	5.28398325e-05
2.44000000e+00	1.48158261e-03	5.24710004e-05
2.44500000e+00	1.46190573e-03	5.25723135e-05
2.45000000e+00	1.46232356e-03	5.15703060e-05
2.45500000e+00	1.45598841e-03	5.15307862e-05
2.46000000e+00	1.45183848e-03	5.15809936e-05
2.46500000e+00	1.42535331e-03	5.12962089e-05
2.47000000e+00	1.41008022e-03	5.02222072e-05
2.47500000e+00	1.41709840e-03	5.01332063e-05
2.48000000e+00	1.41775360e-03	5.06479066e-05
2.48500000e+00	1.39197869e-03	4.97144563e-05
2.49000000e+00	1.38504804e-03	5.01101895e-05
2.49500000e+00	1.39386273e-03	4.95382493e-05
2.50000000e+00	1.38421647e-03	4.93042667e-05
2.50500000e+00	1.36020265e-03	4.86917384e-05
2.51000000e+00	1.34775591e-03	4.85591633e-05
2.51500000e+00	1.34472501e-03	4.85716792e-05
2.52000000e+00	1.34126475e-03	4.80650824e-05
2.52500000e+00	1.35000237e-03	4.85844322e-05
2.53000000e+00	1.32691071e-03	4.82232794e-05
2.53500000e+00	1.32715549e-03	4.87818515e-05
2.54000000e+00	1.31377700e-03	4.74784146e-05
2.54500000e+00	1.30694586e-03	4.74487210e-05
2.55000000e+00	1.30306181e-03	4.75735325e-05
2.55500000e+00	1.30187925e-03	4.78106922e-05
2.56000000e+00	1.29837792e-03	4.80352856e-05
2.56500000e+00	1.29099801e-03	4.73580120e-05
2.57000000e+00	1.27529688e-03	4.69264156e-05
2.57500000e+00	1.27962920e-03	4.72581495e-05
2.58000000e+00	1.25704059e-03	4.71741642e-05
2.58500000e+00	1.25063172e-03	4.65836822e-05
2.59000000e+00	1.22981266e-03	4.56465946e-05
2.59500000e+00	1.24640484e-03	4.64065052e-05
2.60000000e+00	1.23363696e-03	4.62575788e-05
2.60500000e+00	1.25196459e-03	4.80334060e-05
2.61000000e+00	1.22800096e-03	5.35669071e-05
2.61500000e+00	1.22671307e-03	5.92794326e-05
2.62000000e+00	1.19375526e-03	6.34448387e-05
2.62500000e+00	1.20245483e-03	6.90742209e-05
2.63000000e+00	1.18903724e-03	7.56322978e-05
2.63500000e+00	1.18990709e-03	8.39019962e-05
2.64000000e+00	1.17627375e-03	9.14192394e-05
2.64500000e+00	1.21254727e-03	1.00432190e-04
2.65000000e+00	1.21738725e-03	1.07126874e-04
2.65500000e+00	1.15883290e-03	1.08909262e-04
2.66000000e+00	1.19323853e-03	1.20621362e-04
2.66500000e+00	1.17512556e-03	1.34106799e-04
2.67000000e+00	1.12745052e-03	1.38525507e-04
2.67500000e+00	1.12980291e-03	1.62801281e-04
2.68000000e+00	1.13743455e-03	1.90279831e-04
2.68500000e+00	1.14057390e-03	2.54366753e-04
2.69000000e+00	1.14297349e-03	4.09770456e-04
2.69500000e+00	0.00000000e+00	0.00000000e+00
2.70000000e+00	0.00000000e+00	0.00000000e+00
