% Filename : WDL7c_00013_00003.h5
% Date & Time : 30-Oct-2025 16:13:19
% X-ray Energy (keV) : 13.30001
% Exposure Time (s) : 0.500
% Photodiode Value : 139896.000
% I0 of Sample : 0
% I0 of Standard : 1
% 
% q(A^-1)   I(q)    I(q)_SE
8.40000000e-01	0.00000000e+00	0.00000000e+00
8.45000000e-01	2.79139481e-03	4.87750637e-04
8.50000000e-01	2.72454356e-03	2.52682531e-04
8.55000000e-01	2.63936780e-03	2.15821986e-04
8.60000000e-01	2.64037731e-03	1.86793421e-04
8.65000000e-01	2.64863768e-03	1.72763139e-04
8.70000000e-01	2.64002807e-03	1.64069045e-04
8.75000000e-01	2.65793942e-03	1.58914316e-04
8.80000000e-01	2.63713921e-03	1.52383452e-04
8.85000000e-01	2.62720083e-03	1.43659328e-04
8.90000000e-01	2.67859985e-03	1.43374504e-04
8.95000000e-01	2.66976375e-03	1.38779616e-04
9.00000000e-01	2.69712502e-03	1.38960258e-04
9.05000000e-01	2.67669262e-03	1.31827977e-04
9.10000000e-01	2.69230587e-03	1.30088294e-04
9.15000000e-01	2.71316854e-03	1.28988779e-04
9.20000000e-01	2.66040764e-03	1.26351483e-04
9.25000000e-01	2.75288470e-03	1.25102765e-04
9.30000000e-01	2.70125458e-03	1.21622965e-04
9.35000000e-01	2.73285738e-03	1.20555603e-04
9.40000000e-01	2.73698518e-03	1.21220778e-04
9.45000000e-01	2.76203055e-03	1.19171157e-04
9.50000000e-01	2.75474294e-03	1.17206335e-04
9.55000000e-01	2.73882567e-03	1.14439518e-04
9.60000000e-01	2.74788183e-03	1.14948170e-04
9.65000000e-01	2.73895995e-03	1.12683008e-04
9.70000000e-01	2.75658663e-03	1.11466759e-04
9.75000000e-01	2.75963230e-03	1.10494675e-04
9.80000000e-01	2.76001060e-03	1.09342342e-04
9.85000000e-01	2.77264405e-03	1.10102848e-04
9.90000000e-01	2.77751716e-03	1.07010840e-04
9.95000000e-01	2.78742368e-03	1.06814788e-04
1.00000000e+00	2.78418456e-03	1.06134499e-04
1.00500000e+00	2.77359484e-03	1.05844042e-04
1.01000000e+00	2.78516372e-03	1.03906232e-04
1.01500000e+00	2.78466723e-03	1.03102078e-04
1.02000000e+00	2.77889728e-03	1.02746389e-04
1.02500000e+00	2.75346211e-03	1.00521545e-04
1.03000000e+00	2.76397364e-03	1.00577006e-04
1.03500000e+00	2.78229230e-03	9.97425128e-05
1.04000000e+00	2.75426572e-03	9.81909435e-05
1.04500000e+00	2.75543083e-03	9.83773473e-05
1.05000000e+00	2.75217812e-03	9.74938255e-05
1.05500000e+00	2.72620754e-03	9.50965908e-05
1.06000000e+00	2.72755302e-03	9.49158009e-05
1.06500000e+00	2.76040305e-03	9.62618479e-05
1.07000000e+00	2.73759888e-03	9.52387387e-05
1.07500000e+00	2.74124003e-03	9.45916343e-05
1.08000000e+00	2.79951086e-03	9.61017802e-05
1.08500000e+00	2.78172171e-03	9.55836792e-05
1.09000000e+00	2.77448476e-03	9.57868037e-05
1.09500000e+00	2.77387921e-03	9.40129874e-05
1.10000000e+00	2.79252299e-03	9.51992466e-05
1.10500000e+00	2.81991322e-03	9.64521253e-05
1.11000000e+00	2.80138142e-03	9.58964662e-05
1.11500000e+00	2.82972634e-03	9.61429006e-05
1.12000000e+00	2.83718251e-03	9.67643133e-05
1.12500000e+00	2.84064037e-03	9.68004796e-05
1.13000000e+00	2.83394859e-03	9.75499307e-05
1.13500000e+00	2.83926865e-03	9.65085804e-05
1.14000000e+00	2.87314706e-03	9.75147378e-05
1.14500000e+00	2.86005963e-03	9.78935029e-05
1.15000000e+00	2.86351224e-03	9.84504975e-05
1.15500000e+00	2.88519294e-03	9.82565710e-05
1.16000000e+00	2.86642843e-03	9.79453077e-05
1.16500000e+00	2.89693546e-03	9.88812158e-05
1.17000000e+00	2.88249790e-03	9.95729171e-05
1.17500000e+00	2.87810658e-03	9.79643959e-05
1.18000000e+00	2.90507345e-03	9.94255308e-05
1.18500000e+00	2.91318647e-03	9.94822002e-05
1.19000000e+00	2.90625069e-03	1.00417999e-04
1.19500000e+00	2.92621571e-03	9.97566957e-05
1.20000000e+00	2.93014692e-03	1.00497984e-04
1.20500000e+00	2.94256777e-03	1.00688686e-04
1.21000000e+00	2.95586809e-03	1.02466549e-04
1.21500000e+00	2.94508460e-03	1.00534130e-04
1.22000000e+00	2.94652883e-03	1.00636076e-04
1.22500000e+00	2.95588392e-03	1.01396652e-04
1.23000000e+00	2.93253100e-03	1.01371510e-04
1.23500000e+00	2.93508722e-03	1.00735824e-04
1.24000000e+00	2.94858721e-03	1.00760434e-04
1.24500000e+00	2.95647105e-03	1.01781654e-04
1.25000000e+00	2.96020278e-03	1.02424115e-04
1.25500000e+00	2.96120466e-03	1.01351850e-04
1.26000000e+00	2.96640018e-03	1.02187207e-04
1.26500000e+00	2.95502442e-03	1.01369562e-04
1.27000000e+00	2.95348895e-03	1.02793465e-04
1.27500000e+00	2.98118149e-03	1.02627983e-04
1.28000000e+00	2.97291399e-03	1.01741577e-04
1.28500000e+00	2.97058671e-03	1.02222906e-04
1.29000000e+00	2.96264161e-03	1.02974875e-04
1.29500000e+00	2.98888295e-03	1.02775487e-04
1.30000000e+00	2.96264459e-03	1.01687445e-04
1.30500000e+00	2.98710449e-03	1.02943849e-04
1.31000000e+00	2.98729330e-03	1.04198323e-04
1.31500000e+00	2.97691221e-03	1.02489348e-04
1.32000000e+00	2.97089251e-03	1.02194780e-04
1.32500000e+00	2.98146111e-03	1.02814503e-04
1.33000000e+00	2.96370546e-03	1.03445305e-04
1.33500000e+00	2.97962734e-03	1.02573738e-04
1.34000000e+00	2.98534092e-03	1.02927544e-04
1.34500000e+00	2.98858224e-03	1.03402459e-04
1.35000000e+00	2.98390887e-03	1.04193838e-04
1.35500000e+00	2.98213428e-03	1.02730800e-04
1.36000000e+00	2.99267289e-03	1.02940754e-04
1.36500000e+00	2.95262433e-03	1.01883883e-04
1.37000000e+00	2.96783917e-03	1.03865611e-04
1.37500000e+00	2.98327881e-03	1.02876373e-04
1.38000000e+00	2.97120907e-03	1.02679158e-04
1.38500000e+00	2.98354073e-03	1.03690455e-04
1.39000000e+00	2.97463565e-03	1.03960487e-04
1.39500000e+00	2.98202338e-03	1.02731567e-04
1.40000000e+00	2.98581800e-03	1.06023018e-04
1.40500000e+00	2.96211249e-03	1.13221608e-04
1.41000000e+00	2.93350661e-03	1.17351758e-04
1.41500000e+00	2.91797235e-03	1.20954564e-04
1.42000000e+00	2.90152648e-03	1.25211169e-04
1.42500000e+00	2.91166759e-03	1.29313298e-04
1.43000000e+00	2.89988966e-03	1.33668181e-04
1.43500000e+00	2.91147305e-03	1.38229555e-04
1.44000000e+00	2.86561154e-03	1.41467796e-04
1.44500000e+00	2.84481140e-03	1.44035352e-04
1.45000000e+00	2.92170534e-03	1.42895657e-04
1.45500000e+00	2.95615969e-03	1.30069208e-04
1.46000000e+00	2.95499129e-03	1.26773158e-04
1.46500000e+00	2.91253844e-03	1.22854344e-04
1.47000000e+00	2.90006737e-03	1.22203623e-04
1.47500000e+00	2.92872252e-03	1.19691671e-04
1.48000000e+00	2.94194236e-03	1.18980365e-04
1.48500000e+00	2.91849376e-03	1.18145181e-04
1.49000000e+00	2.92463548e-03	1.18686569e-04
1.49500000e+00	2.93508031e-03	1.16426684e-04
1.50000000e+00	2.92933057e-03	1.15792997e-04
1.50500000e+00	2.92597335e-03	1.16287072e-04
1.51000000e+00	2.95857355e-03	1.17904153e-04
1.51500000e+00	2.93446872e-03	1.14970060e-04
1.52000000e+00	2.94821474e-03	1.15151185e-04
1.52500000e+00	2.95009261e-03	1.14971862e-04
1.53000000e+00	2.95899126e-03	1.16167493e-04
1.53500000e+00	2.94023326e-03	1.12063178e-04
1.54000000e+00	2.92641603e-03	1.11330762e-04
1.54500000e+00	2.93631204e-03	1.11494135e-04
1.55000000e+00	2.90206116e-03	1.09963301e-04
1.55500000e+00	2.92805164e-03	1.08361727e-04
1.56000000e+00	2.89040713e-03	1.07193575e-04
1.56500000e+00	2.89023808e-03	1.06583769e-04
1.57000000e+00	2.86222931e-03	1.04863870e-04
1.57500000e+00	2.87306624e-03	1.03374031e-04
1.58000000e+00	2.82653185e-03	1.01500919e-04
1.58500000e+00	2.83469152e-03	1.01790274e-04
1.59000000e+00	2.84340141e-03	1.02170419e-04
1.59500000e+00	2.82389783e-03	9.94920427e-05
1.60000000e+00	2.85303506e-03	1.00575950e-04
1.60500000e+00	2.81253633e-03	9.91228177e-05
1.61000000e+00	2.82323587e-03	9.91213748e-05
1.61500000e+00	2.80256675e-03	9.74878683e-05
1.62000000e+00	2.81115002e-03	9.82140709e-05
1.62500000e+00	2.77590616e-03	9.80523817e-05
1.63000000e+00	2.78044645e-03	9.71653345e-05
1.63500000e+00	2.80190747e-03	9.79817653e-05
1.64000000e+00	2.77986289e-03	9.72483214e-05
1.64500000e+00	2.77165184e-03	9.80254564e-05
1.65000000e+00	2.75490802e-03	9.62704978e-05
1.65500000e+00	2.77586599e-03	9.69164451e-05
1.66000000e+00	2.74731370e-03	9.60158256e-05
1.66500000e+00	2.74526710e-03	9.75830801e-05
1.67000000e+00	2.73972970e-03	9.53943257e-05
1.67500000e+00	2.76678424e-03	9.65919984e-05
1.68000000e+00	2.73036323e-03	9.56037956e-05
1.68500000e+00	2.70926012e-03	9.65035935e-05
1.69000000e+00	2.69959740e-03	9.42431803e-05
1.69500000e+00	2.72146894e-03	9.48947163e-05
1.70000000e+00	2.71567313e-03	9.57240357e-05
1.70500000e+00	2.68591408e-03	9.50892271e-05
1.71000000e+00	2.70752877e-03	9.46686044e-05
1.71500000e+00	2.67464240e-03	9.33710929e-05
1.72000000e+00	2.69266801e-03	9.47695901e-05
1.72500000e+00	2.66041815e-03	9.41576390e-05
1.73000000e+00	2.68014067e-03	9.36071331e-05
1.73500000e+00	2.66158335e-03	9.32599012e-05
1.74000000e+00	2.65993388e-03	9.34195198e-05
1.74500000e+00	2.62529690e-03	9.33062476e-05
1.75000000e+00	2.63591963e-03	9.19055785e-05
1.75500000e+00	2.64000409e-03	9.27020018e-05
1.76000000e+00	2.63566562e-03	9.24382343e-05
1.76500000e+00	2.61274329e-03	9.28661421e-05
1.77000000e+00	2.62163911e-03	9.16030194e-05
1.77500000e+00	2.61599538e-03	9.17135306e-05
1.78000000e+00	2.58472986e-03	9.08504895e-05
1.78500000e+00	2.58791898e-03	9.19208199e-05
1.79000000e+00	2.58358605e-03	9.02247050e-05
1.79500000e+00	2.57555583e-03	9.01402766e-05
1.80000000e+00	2.57819532e-03	9.07793091e-05
1.80500000e+00	2.55229415e-03	9.05342407e-05
1.81000000e+00	2.56702745e-03	8.96694238e-05
1.81500000e+00	2.55520816e-03	8.92904174e-05
1.82000000e+00	2.55075649e-03	8.97825406e-05
1.82500000e+00	2.53462205e-03	8.97545400e-05
1.83000000e+00	2.52932252e-03	8.84414593e-05
1.83500000e+00	2.51733540e-03	8.81581689e-05
1.84000000e+00	2.50882883e-03	8.83907037e-05
1.84500000e+00	2.53161939e-03	8.96817384e-05
1.85000000e+00	2.50291118e-03	8.76626352e-05
1.85500000e+00	2.48916712e-03	8.71309685e-05
1.86000000e+00	2.48743280e-03	8.77021789e-05
1.86500000e+00	2.47310939e-03	8.74742964e-05
1.87000000e+00	2.48291900e-03	8.68155722e-05
1.87500000e+00	2.47297286e-03	8.67325404e-05
1.88000000e+00	2.44675595e-03	8.62156311e-05
1.88500000e+00	2.45859893e-03	8.70928328e-05
1.89000000e+00	2.45225842e-03	8.57260645e-05
1.89500000e+00	2.44710775e-03	8.60046047e-05
1.90000000e+00	2.43505981e-03	8.58362998e-05
1.90500000e+00	2.42328892e-03	8.54655359e-05
1.91000000e+00	2.41079662e-03	8.44662042e-05
1.91500000e+00	2.39540648e-03	8.39604864e-05
1.92000000e+00	2.39725413e-03	8.44980021e-05
1.92500000e+00	2.38991437e-03	8.43502341e-05
1.93000000e+00	2.38558226e-03	8.34811489e-05
1.93500000e+00	2.36355510e-03	8.29314961e-05
1.94000000e+00	2.35775038e-03	8.33778033e-05
1.94500000e+00	2.35626116e-03	8.31068587e-05
1.95000000e+00	2.37339080e-03	8.28907159e-05
1.95500000e+00	2.36625514e-03	8.30813503e-05
1.96000000e+00	2.33165720e-03	8.22892589e-05
1.96500000e+00	2.32863056e-03	8.22789113e-05
1.97000000e+00	2.33371196e-03	8.14954238e-05
1.97500000e+00	2.32102977e-03	8.15298431e-05
1.98000000e+00	2.31029260e-03	8.15236131e-05
1.98500000e+00	2.30157182e-03	8.13289685e-05
1.99000000e+00	2.29593219e-03	8.01761859e-05
1.99500000e+00	2.29740425e-03	8.05875660e-05
2.00000000e+00	2.28965872e-03	8.08574772e-05
2.00500000e+00	2.31539859e-03	8.19290501e-05
2.01000000e+00	2.29226139e-03	8.91013959e-05
2.01500000e+00	2.24748072e-03	9.27913831e-05
2.02000000e+00	2.22819097e-03	9.79922302e-05
2.02500000e+00	2.23193552e-03	1.01930656e-04
2.03000000e+00	2.22249571e-03	1.07588222e-04
2.03500000e+00	2.20080050e-03	1.11287243e-04
2.04000000e+00	2.17747518e-03	1.15002958e-04
2.04500000e+00	2.18175128e-03	1.21356152e-04
2.05000000e+00	2.15336409e-03	1.25651589e-04
2.05500000e+00	2.18429129e-03	1.25072621e-04
2.06000000e+00	2.18618082e-03	1.08842106e-04
2.06500000e+00	2.18268591e-03	1.03841507e-04
2.07000000e+00	2.16023160e-03	9.72734848e-05
2.07500000e+00	2.15059498e-03	9.45685964e-05
2.08000000e+00	2.19131703e-03	9.62415599e-05
2.08500000e+00	2.15161566e-03	9.37069771e-05
2.09000000e+00	2.16487646e-03	9.14400521e-05
2.09500000e+00	2.16116978e-03	9.02839687e-05
2.10000000e+00	2.16108460e-03	8.96867348e-05
2.10500000e+00	2.14992911e-03	8.88681428e-05
2.11000000e+00	2.12083871e-03	8.45032190e-05
2.11500000e+00	2.12310691e-03	8.37724715e-05
2.12000000e+00	2.08121511e-03	8.17183858e-05
2.12500000e+00	2.07184303e-03	8.10832668e-05
2.13000000e+00	2.08199078e-03	7.81697993e-05
2.13500000e+00	2.07893963e-03	7.71333995e-05
2.14000000e+00	2.04426680e-03	7.51579457e-05
2.14500000e+00	2.01546863e-03	7.43556931e-05
2.15000000e+00	2.02952952e-03	7.24291540e-05
2.15500000e+00	2.02240737e-03	7.22651043e-05
2.16000000e+00	2.01068188e-03	7.15089050e-05
2.16500000e+00	1.99524609e-03	7.14552780e-05
2.17000000e+00	1.99892489e-03	6.98277687e-05
2.17500000e+00	1.97379472e-03	6.91478618e-05
2.18000000e+00	1.97495724e-03	6.93721531e-05
2.18500000e+00	1.95360046e-03	6.89746805e-05
2.19000000e+00	1.95067411e-03	6.86716839e-05
2.19500000e+00	1.94530746e-03	6.81377093e-05
2.20000000e+00	1.92087187e-03	6.74707791e-05
2.20500000e+00	1.93269884e-03	6.80836685e-05
2.21000000e+00	1.89383247e-03	6.70593219e-05
2.21500000e+00	1.91526110e-03	6.69962801e-05
2.22000000e+00	1.88533312e-03	6.59411899e-05
2.22500000e+00	1.89216312e-03	6.67211000e-05
2.23000000e+00	1.86547577e-03	6.60201790e-05
2.23500000e+00	1.87444256e-03	6.54908004e-05
2.24000000e+00	1.83799270e-03	6.42169540e-05
2.24500000e+00	1.82742395e-03	6.43678251e-05
2.25000000e+00	1.84005246e-03	6.52586650e-05
2.25500000e+00	1.81229438e-03	6.32315394e-05
2.26000000e+00	1.79743407e-03	6.29575513e-05
2.26500000e+00	1.78744372e-03	6.27764580e-05
2.27000000e+00	1.77568860e-03	6.32327759e-05
2.27500000e+00	1.75508123e-03	6.12508140e-05
2.28000000e+00	1.76041769e-03	6.14859452e-05
2.28500000e+00	1.74047246e-03	6.11972299e-05
2.29000000e+00	1.72011867e-03	6.08388703e-05
2.29500000e+00	1.70406526e-03	6.01064223e-05
2.30000000e+00	1.70549323e-03	5.96030905e-05
2.30500000e+00	1.70904714e-03	5.98158601e-05
2.31000000e+00	1.67282469e-03	5.89329369e-05
2.31500000e+00	1.67287483e-03	5.93709227e-05
2.32000000e+00	1.64582544e-03	5.72661046e-05
2.32500000e+00	1.66591051e-03	5.84173229e-05
2.33000000e+00	1.63863631e-03	5.76299712e-05
2.33500000e+00	1.62543295e-03	5.76869690e-05
2.34000000e+00	1.62014558e-03	5.65626920e-05
2.34500000e+00	1.60809590e-03	5.61528851e-05
2.35000000e+00	1.60054392e-03	5.60813554e-05
2.35500000e+00	1.57941570e-03	5.60081772e-05
2.36000000e+00	1.59558473e-03	5.58518346e-05
2.36500000e+00	1.58246811e-03	5.53692260e-05
2.37000000e+00	1.57088370e-03	5.50442778e-05
2.37500000e+00	1.55772322e-03	5.49457097e-05
2.38000000e+00	1.54896636e-03	5.49475897e-05
2.38500000e+00	1.54042939e-03	5.39033390e-05
2.39000000e+00	1.54078583e-03	5.40568578e-05
2.39500000e+00	1.51495747e-03	5.34313358e-05
2.40000000e+00	1.51374859e-03	5.41437676e-05
2.40500000e+00	1.48452157e-03	5.20275266e-05
2.41000000e+00	1.47630006e-03	5.20250928e-05
2.41500000e+00	1.47156368e-03	5.18152675e-05
2.42000000e+00	1.46642235e-03	5.23192758e-05
2.42500000e+00	1.45520343e-03	5.18160822e-05
2.43000000e+00	1.43996281e-03	5.08292155e-05
2.43500000e+00	1.44405309e-03	5.11288479e-05
2.44000000e+00	1.42938510e-03	5.06440677e-05
2.44500000e+00	1.41073939e-03	5.06805698e-05
2.45000000e+00	1.41248395e-03	4.98412294e-05
2.45500000e+00	1.41449681e-03	5.01033346e-05
2.46000000e+00	1.39903247e-03	4.97304094e-05
2.46500000e+00	1.38670746e-03	4.98918497e-05
2.47000000e+00	1.39404084e-03	4.96227112e-05
2.47500000e+00	1.37798834e-03	4.88655654e-05
2.48000000e+00	1.36711128e-03	4.88944465e-05
2.48500000e+00	1.35550599e-03	4.84657179e-05
2.49000000e+00	1.34691145e-03	4.87373531e-05
2.49500000e+00	1.34673833e-03	4.79024898e-05
2.50000000e+00	1.35429332e-03	4.82243445e-05
2.50500000e+00	1.33933095e-03	4.79445683e-05
2.51000000e+00	1.32851889e-03	4.78897115e-05
2.51500000e+00	1.31445560e-03	4.74892792e-05
2.52000000e+00	1.31198747e-03	4.70386149e-05
2.52500000e+00	1.31163648e-03	4.72025865e-05
2.53000000e+00	1.27864569e-03	4.64204605e-05
2.53500000e+00	1.29819667e-03	4.77582380e-05
2.54000000e+00	1.28950135e-03	4.65921130e-05
2.54500000e+00	1.27688443e-03	4.63814037e-05
2.55000000e+00	1.26419176e-03	4.61195650e-05
2.55500000e+00	1.24204842e-03	4.56918019e-05
2.56000000e+00	1.25766742e-03	4.65357084e-05
2.56500000e+00	1.24665788e-03	4.57133980e-05
2.57000000e+00	1.23636066e-03	4.54832411e-05
2.57500000e+00	1.23673663e-03	4.56685104e-05
2.58000000e+00	1.22592373e-03	4.60235163e-05
2.58500000e+00	1.20984728e-03	4.50406647e-05
2.59000000e+00	1.20491528e-03	4.46880619e-05
2.59500000e+00	1.20971257e-03	4.50427300e-05
2.60000000e+00	1.19975073e-03	4.50431923e-05
2.60500000e+00	1.20756974e-03	4.62758556e-05
2.61000000e+00	1.17902600e-03	5.15235143e-05
2.61500000e+00	1.17875887e-03	5.69911472e-05
2.62000000e+00	1.16461831e-03	6.19846319e-05
2.62500000e+00	1.16173533e-03	6.68096223e-05
2.63000000e+00	1.16884567e-03	7.44594313e-05
2.63500000e+00	1.16123284e-03	8.16398045e-05
2.64000000e+00	1.16781813e-03	9.10128098e-05
2.64500000e+00	1.15164698e-03	9.56077106e-05
2.65000000e+00	1.12734532e-03	9.86835654e-05
2.65500000e+00	1.15926416e-03	1.09568708e-04
2.66000000e+00	1.13462268e-03	1.14667063e-04
2.66500000e+00	1.16284514e-03	1.32417027e-04
2.67000000e+00	1.14232129e-03	1.40381602e-04
2.67500000e+00	1.16057838e-03	1.66936105e-04
2.68000000e+00	1.08479687e-03	1.80065913e-04
2.68500000e+00	1.04833386e-03	2.31457246e-04
2.69000000e+00	1.07420575e-03	3.87157938e-04
2.69500000e+00	0.00000000e+00	0.00000000e+00
2.70000000e+00	0.00000000e+00	0.00000000e+00
