% Filename : WDL7_00012_00196.h5
% Date & Time : 30-Oct-2025 14:57:54
% X-ray Energy (keV) : 13.30001
% Exposure Time (s) : 0.500
% Photodiode Value : 136459.000
% I0 of Sample : 0
% I0 of Standard : 1
% 
% q(A^-1)   I(q)    I(q)_SE
8.40000000e-01	0.00000000e+00	0.00000000e+00
8.45000000e-01	2.69549848e-03	4.73176062e-04
8.50000000e-01	2.66945980e-03	2.47807214e-04
8.55000000e-01	2.58024873e-03	2.10923129e-04
8.60000000e-01	2.56712827e-03	1.81638848e-04
8.65000000e-01	2.55356366e-03	1.66660792e-04
8.70000000e-01	2.57679509e-03	1.60126335e-04
8.75000000e-01	2.58019832e-03	1.54264776e-04
8.80000000e-01	2.58591037e-03	1.49577820e-04
8.85000000e-01	2.60416823e-03	1.42470603e-04
8.90000000e-01	2.61933361e-03	1.40119848e-04
8.95000000e-01	2.61675114e-03	1.35960955e-04
9.00000000e-01	2.60553189e-03	1.34180409e-04
9.05000000e-01	2.60959855e-03	1.28580460e-04
9.10000000e-01	2.62720804e-03	1.27104594e-04
9.15000000e-01	2.61413266e-03	1.24491344e-04
9.20000000e-01	2.65179515e-03	1.25985599e-04
9.25000000e-01	2.61592386e-03	1.18964928e-04
9.30000000e-01	2.65053667e-03	1.19151877e-04
9.35000000e-01	2.65423691e-03	1.17203396e-04
9.40000000e-01	2.66832845e-03	1.18109735e-04
9.45000000e-01	2.66631892e-03	1.15008166e-04
9.50000000e-01	2.68741145e-03	1.14373933e-04
9.55000000e-01	2.66941298e-03	1.11594764e-04
9.60000000e-01	2.65869502e-03	1.11078671e-04
9.65000000e-01	2.67307129e-03	1.09934817e-04
9.70000000e-01	2.69080105e-03	1.08799557e-04
9.75000000e-01	2.69576482e-03	1.07811837e-04
9.80000000e-01	2.71762712e-03	1.07765317e-04
9.85000000e-01	2.69611955e-03	1.07049421e-04
9.90000000e-01	2.69791870e-03	1.03871484e-04
9.95000000e-01	2.72019500e-03	1.04183861e-04
1.00000000e+00	2.71044287e-03	1.03439590e-04
1.00500000e+00	2.69829578e-03	1.02892719e-04
1.01000000e+00	2.69666983e-03	1.00753931e-04
1.01500000e+00	2.71133620e-03	1.00276213e-04
1.02000000e+00	2.68509890e-03	9.92970442e-05
1.02500000e+00	2.66557007e-03	9.73732530e-05
1.03000000e+00	2.69433640e-03	9.80098820e-05
1.03500000e+00	2.69094631e-03	9.66663347e-05
1.04000000e+00	2.67620451e-03	9.55251960e-05
1.04500000e+00	2.65664946e-03	9.47741605e-05
1.05000000e+00	2.67878875e-03	9.49766047e-05
1.05500000e+00	2.64922978e-03	9.24595587e-05
1.06000000e+00	2.66181175e-03	9.27233137e-05
1.06500000e+00	2.68773672e-03	9.37366806e-05
1.07000000e+00	2.69633398e-03	9.38703778e-05
1.07500000e+00	2.67339870e-03	9.23454035e-05
1.08000000e+00	2.69031439e-03	9.22774798e-05
1.08500000e+00	2.70676734e-03	9.29916901e-05
1.09000000e+00	2.69089195e-03	9.30238981e-05
1.09500000e+00	2.72077510e-03	9.21631748e-05
1.10000000e+00	2.75309727e-03	9.38081473e-05
1.10500000e+00	2.72618675e-03	9.32140468e-05
1.11000000e+00	2.71658426e-03	9.31845274e-05
1.11500000e+00	2.73306704e-03	9.29665565e-05
1.12000000e+00	2.74935378e-03	9.39149161e-05
1.12500000e+00	2.77564797e-03	9.45243499e-05
1.13000000e+00	2.76551190e-03	9.52387391e-05
1.13500000e+00	2.78297758e-03	9.47286693e-05
1.14000000e+00	2.78343248e-03	9.46427084e-05
1.14500000e+00	2.79320078e-03	9.56614655e-05
1.15000000e+00	2.78330985e-03	9.59514136e-05
1.15500000e+00	2.78645999e-03	9.49751414e-05
1.16000000e+00	2.80424839e-03	9.58756507e-05
1.16500000e+00	2.80142043e-03	9.56452151e-05
1.17000000e+00	2.80356673e-03	9.68088108e-05
1.17500000e+00	2.82159795e-03	9.60533360e-05
1.18000000e+00	2.85405424e-03	9.75996795e-05
1.18500000e+00	2.82031506e-03	9.63622537e-05
1.19000000e+00	2.82428402e-03	9.74629532e-05
1.19500000e+00	2.82971479e-03	9.64867677e-05
1.20000000e+00	2.85073511e-03	9.77745082e-05
1.20500000e+00	2.84842919e-03	9.75312495e-05
1.21000000e+00	2.83236861e-03	9.83010251e-05
1.21500000e+00	2.84279932e-03	9.71418732e-05
1.22000000e+00	2.85444353e-03	9.75573435e-05
1.22500000e+00	2.85867005e-03	9.80808126e-05
1.23000000e+00	2.84307307e-03	9.83569897e-05
1.23500000e+00	2.85706283e-03	9.81618550e-05
1.24000000e+00	2.88091978e-03	9.84988277e-05
1.24500000e+00	2.84715113e-03	9.80201268e-05
1.25000000e+00	2.86888957e-03	9.93602056e-05
1.25500000e+00	2.86450567e-03	9.80610509e-05
1.26000000e+00	2.86984324e-03	9.88495191e-05
1.26500000e+00	2.86248990e-03	9.81892114e-05
1.27000000e+00	2.85346120e-03	9.92504977e-05
1.27500000e+00	2.87290180e-03	9.89673903e-05
1.28000000e+00	2.88183437e-03	9.86949996e-05
1.28500000e+00	2.87305743e-03	9.88584089e-05
1.29000000e+00	2.87973052e-03	1.00063371e-04
1.29500000e+00	2.89033757e-03	9.93309111e-05
1.30000000e+00	2.86909292e-03	9.84101267e-05
1.30500000e+00	2.87015914e-03	9.89906045e-05
1.31000000e+00	2.87458912e-03	1.00249944e-04
1.31500000e+00	2.88394249e-03	9.93124125e-05
1.32000000e+00	2.87901573e-03	9.90100295e-05
1.32500000e+00	2.87826669e-03	9.93120889e-05
1.33000000e+00	2.87612339e-03	1.00437010e-04
1.33500000e+00	2.88118056e-03	9.91937495e-05
1.34000000e+00	2.89034834e-03	9.96296971e-05
1.34500000e+00	2.89417734e-03	1.00116780e-04
1.35000000e+00	2.88255097e-03	1.00699687e-04
1.35500000e+00	2.90062368e-03	9.99261721e-05
1.36000000e+00	2.89275315e-03	9.95559263e-05
1.36500000e+00	2.86302930e-03	9.88669614e-05
1.37000000e+00	2.88014349e-03	1.00910665e-04
1.37500000e+00	2.86452956e-03	9.87651017e-05
1.38000000e+00	2.86677614e-03	9.91010295e-05
1.38500000e+00	2.87248882e-03	9.97872351e-05
1.39000000e+00	2.86902276e-03	1.00341675e-04
1.39500000e+00	2.85233841e-03	9.82788867e-05
1.40000000e+00	2.92596376e-03	1.03936222e-04
1.40500000e+00	2.84915182e-03	1.08961090e-04
1.41000000e+00	2.83437026e-03	1.13344068e-04
1.41500000e+00	2.81413608e-03	1.16813717e-04
1.42000000e+00	2.83361846e-03	1.22316120e-04
1.42500000e+00	2.78082597e-03	1.23462778e-04
1.43000000e+00	2.80060046e-03	1.29180442e-04
1.43500000e+00	2.78708547e-03	1.32416829e-04
1.44000000e+00	2.76301478e-03	1.36495852e-04
1.44500000e+00	2.75381124e-03	1.39528763e-04
1.45000000e+00	2.82046564e-03	1.38228397e-04
1.45500000e+00	2.85135156e-03	1.25446381e-04
1.46000000e+00	2.81715110e-03	1.20996794e-04
1.46500000e+00	2.84825140e-03	1.20125998e-04
1.47000000e+00	2.80054296e-03	1.17973829e-04
1.47500000e+00	2.83840347e-03	1.16114628e-04
1.48000000e+00	2.80652127e-03	1.13518635e-04
1.48500000e+00	2.82399664e-03	1.14355932e-04
1.49000000e+00	2.82118181e-03	1.14491357e-04
1.49500000e+00	2.83329853e-03	1.12367140e-04
1.50000000e+00	2.80559334e-03	1.10970737e-04
1.50500000e+00	2.84867140e-03	1.13195438e-04
1.51000000e+00	2.82021247e-03	1.12479725e-04
1.51500000e+00	2.83801461e-03	1.11092538e-04
1.52000000e+00	2.85091874e-03	1.11418699e-04
1.52500000e+00	2.84195390e-03	1.10833376e-04
1.53000000e+00	2.84442530e-03	1.11583878e-04
1.53500000e+00	2.83986676e-03	1.08273415e-04
1.54000000e+00	2.83972227e-03	1.08060199e-04
1.54500000e+00	2.82339377e-03	1.07257855e-04
1.55000000e+00	2.80259562e-03	1.06169395e-04
1.55500000e+00	2.80863757e-03	1.04013234e-04
1.56000000e+00	2.78086674e-03	1.03303150e-04
1.56500000e+00	2.79673699e-03	1.03294898e-04
1.57000000e+00	2.73910017e-03	1.00399104e-04
1.57500000e+00	2.74766561e-03	9.89282953e-05
1.58000000e+00	2.73498594e-03	9.82633850e-05
1.58500000e+00	2.71973793e-03	9.77062641e-05
1.59000000e+00	2.71743275e-03	9.76353295e-05
1.59500000e+00	2.69954939e-03	9.52310874e-05
1.60000000e+00	2.71218075e-03	9.55117758e-05
1.60500000e+00	2.71748487e-03	9.57704490e-05
1.61000000e+00	2.71532940e-03	9.53024024e-05
1.61500000e+00	2.71662131e-03	9.45003080e-05
1.62000000e+00	2.68568487e-03	9.38138211e-05
1.62500000e+00	2.70350200e-03	9.55376387e-05
1.63000000e+00	2.67860925e-03	9.36547073e-05
1.63500000e+00	2.66040202e-03	9.30328495e-05
1.64000000e+00	2.65098027e-03	9.26995416e-05
1.64500000e+00	2.63876113e-03	9.33294608e-05
1.65000000e+00	2.64263179e-03	9.24694069e-05
1.65500000e+00	2.64729875e-03	9.24932851e-05
1.66000000e+00	2.63944739e-03	9.23152644e-05
1.66500000e+00	2.62177107e-03	9.32108484e-05
1.67000000e+00	2.64310744e-03	9.20994948e-05
1.67500000e+00	2.61391693e-03	9.12620359e-05
1.68000000e+00	2.60266092e-03	9.11021136e-05
1.68500000e+00	2.61845275e-03	9.32479037e-05
1.69000000e+00	2.62113151e-03	9.15854318e-05
1.69500000e+00	2.58272391e-03	9.00674484e-05
1.70000000e+00	2.60170530e-03	9.17470257e-05
1.70500000e+00	2.59941374e-03	9.20259080e-05
1.71000000e+00	2.58943170e-03	9.04919718e-05
1.71500000e+00	2.58577444e-03	9.03322734e-05
1.72000000e+00	2.57016431e-03	9.04679305e-05
1.72500000e+00	2.55601205e-03	9.05991651e-05
1.73000000e+00	2.57143160e-03	8.99174795e-05
1.73500000e+00	2.57212017e-03	9.01935280e-05
1.74000000e+00	2.54995525e-03	8.95885315e-05
1.74500000e+00	2.53579633e-03	9.01630698e-05
1.75000000e+00	2.53024829e-03	8.82113529e-05
1.75500000e+00	2.55468090e-03	8.96311122e-05
1.76000000e+00	2.52304666e-03	8.85342195e-05
1.76500000e+00	2.50409436e-03	8.90227951e-05
1.77000000e+00	2.51577547e-03	8.79285854e-05
1.77500000e+00	2.51359627e-03	8.81589046e-05
1.78000000e+00	2.48378316e-03	8.73190528e-05
1.78500000e+00	2.49944597e-03	8.87855763e-05
1.79000000e+00	2.50084445e-03	8.73018633e-05
1.79500000e+00	2.46166722e-03	8.62673204e-05
1.80000000e+00	2.47313741e-03	8.72185231e-05
1.80500000e+00	2.44404075e-03	8.67020803e-05
1.81000000e+00	2.45264944e-03	8.57255633e-05
1.81500000e+00	2.42971074e-03	8.49581186e-05
1.82000000e+00	2.42183955e-03	8.52869084e-05
1.82500000e+00	2.43603839e-03	8.63109972e-05
1.83000000e+00	2.43899823e-03	8.53033840e-05
1.83500000e+00	2.42939984e-03	8.51391995e-05
1.84000000e+00	2.43826884e-03	8.59557927e-05
1.84500000e+00	2.40328992e-03	8.51900362e-05
1.85000000e+00	2.40537961e-03	8.42802914e-05
1.85500000e+00	2.41754898e-03	8.47599532e-05
1.86000000e+00	2.40973255e-03	8.50232680e-05
1.86500000e+00	2.35917553e-03	8.34432874e-05
1.87000000e+00	2.35537601e-03	8.24153594e-05
1.87500000e+00	2.36084987e-03	8.28427670e-05
1.88000000e+00	2.36549281e-03	8.33429554e-05
1.88500000e+00	2.34113215e-03	8.29854444e-05
1.89000000e+00	2.33327574e-03	8.15465134e-05
1.89500000e+00	2.33172995e-03	8.19622324e-05
1.90000000e+00	2.33732238e-03	8.24233388e-05
1.90500000e+00	2.33855940e-03	8.25558863e-05
1.91000000e+00	2.32103945e-03	8.13729595e-05
1.91500000e+00	2.29566128e-03	8.05256132e-05
1.92000000e+00	2.29318807e-03	8.08642403e-05
1.92500000e+00	2.30429578e-03	8.13860263e-05
1.93000000e+00	2.29803330e-03	8.04138689e-05
1.93500000e+00	2.27899051e-03	7.99751578e-05
1.94000000e+00	2.27248961e-03	8.03578602e-05
1.94500000e+00	2.26409329e-03	7.98717493e-05
1.95000000e+00	2.26707945e-03	7.92768743e-05
1.95500000e+00	2.25679212e-03	7.91938095e-05
1.96000000e+00	2.26027890e-03	7.98615065e-05
1.96500000e+00	2.22492474e-03	7.86081914e-05
1.97000000e+00	2.24624975e-03	7.85317116e-05
1.97500000e+00	2.20601640e-03	7.75713416e-05
1.98000000e+00	2.22277071e-03	7.84906591e-05
1.98500000e+00	2.18447606e-03	7.72642004e-05
1.99000000e+00	2.20459099e-03	7.69595451e-05
1.99500000e+00	2.19527388e-03	7.70314973e-05
2.00000000e+00	2.19186555e-03	7.74199297e-05
2.00500000e+00	2.18565629e-03	7.74244422e-05
2.01000000e+00	2.19138624e-03	8.52483273e-05
2.01500000e+00	2.16999024e-03	8.95385070e-05
2.02000000e+00	2.13874615e-03	9.41812392e-05
2.02500000e+00	2.13187583e-03	9.74380720e-05
2.03000000e+00	2.11797315e-03	1.02509941e-04
2.03500000e+00	2.07685633e-03	1.05173193e-04
2.04000000e+00	2.10314011e-03	1.11139351e-04
2.04500000e+00	2.10238942e-03	1.16894405e-04
2.05000000e+00	2.07424568e-03	1.21205031e-04
2.05500000e+00	2.05329922e-03	1.17487005e-04
2.06000000e+00	2.12906405e-03	1.05989693e-04
2.06500000e+00	2.09941316e-03	9.99183170e-05
2.07000000e+00	2.06317351e-03	9.30287381e-05
2.07500000e+00	2.07633423e-03	9.15795692e-05
2.08000000e+00	2.07036236e-03	9.09082708e-05
2.08500000e+00	2.07090274e-03	9.02035106e-05
2.09000000e+00	2.08007173e-03	8.78788741e-05
2.09500000e+00	2.07051383e-03	8.65230706e-05
2.10000000e+00	2.07905827e-03	8.63372276e-05
2.10500000e+00	2.05090818e-03	8.48439359e-05
2.11000000e+00	2.02422931e-03	8.07372635e-05
2.11500000e+00	2.01780560e-03	7.97005467e-05
2.12000000e+00	2.03867564e-03	8.01611282e-05
2.12500000e+00	1.99028631e-03	7.80157237e-05
2.13000000e+00	1.98857810e-03	7.47766571e-05
2.13500000e+00	1.96985789e-03	7.31094688e-05
2.14000000e+00	1.95796067e-03	7.20851006e-05
2.14500000e+00	1.94909517e-03	7.18488273e-05
2.15000000e+00	1.93246773e-03	6.89246839e-05
2.15500000e+00	1.92440826e-03	6.87257319e-05
2.16000000e+00	1.92030013e-03	6.83471175e-05
2.16500000e+00	1.92040336e-03	6.87768185e-05
2.17000000e+00	1.91232406e-03	6.67747733e-05
2.17500000e+00	1.90357501e-03	6.67213900e-05
2.18000000e+00	1.89478129e-03	6.66000362e-05
2.18500000e+00	1.86922940e-03	6.60551839e-05
2.19000000e+00	1.88292843e-03	6.62704815e-05
2.19500000e+00	1.86593230e-03	6.53673143e-05
2.20000000e+00	1.83717016e-03	6.44386311e-05
2.20500000e+00	1.84671975e-03	6.50372566e-05
2.21000000e+00	1.83433580e-03	6.48750377e-05
2.21500000e+00	1.81639312e-03	6.35828908e-05
2.22000000e+00	1.81317454e-03	6.34308894e-05
2.22500000e+00	1.78928242e-03	6.31557540e-05
2.23000000e+00	1.78409783e-03	6.33450143e-05
2.23500000e+00	1.78414954e-03	6.23991285e-05
2.24000000e+00	1.74780109e-03	6.12387053e-05
2.24500000e+00	1.74927386e-03	6.16917649e-05
2.25000000e+00	1.74601776e-03	6.20035348e-05
2.25500000e+00	1.73356286e-03	6.05364602e-05
2.26000000e+00	1.72584732e-03	6.04688973e-05
2.26500000e+00	1.72152443e-03	6.06071935e-05
2.27000000e+00	1.70448171e-03	6.08709105e-05
2.27500000e+00	1.69864991e-03	5.93569723e-05
2.28000000e+00	1.66402589e-03	5.81862889e-05
2.28500000e+00	1.66964024e-03	5.87811635e-05
2.29000000e+00	1.66540038e-03	5.89772127e-05
2.29500000e+00	1.64782717e-03	5.81434622e-05
2.30000000e+00	1.63191196e-03	5.69755334e-05
2.30500000e+00	1.63124069e-03	5.71421774e-05
2.31000000e+00	1.61442841e-03	5.68964259e-05
2.31500000e+00	1.61253780e-03	5.73129807e-05
2.32000000e+00	1.60628456e-03	5.59136332e-05
2.32500000e+00	1.58338873e-03	5.56660051e-05
2.33000000e+00	1.57732266e-03	5.54612102e-05
2.33500000e+00	1.56847267e-03	5.57133426e-05
2.34000000e+00	1.56102525e-03	5.45086190e-05
2.34500000e+00	1.55058751e-03	5.41464575e-05
2.35000000e+00	1.54684662e-03	5.42384522e-05
2.35500000e+00	1.52241640e-03	5.40920685e-05
2.36000000e+00	1.51988639e-03	5.32211360e-05
2.36500000e+00	1.50765470e-03	5.27449073e-05
2.37000000e+00	1.49643102e-03	5.23910988e-05
2.37500000e+00	1.49097509e-03	5.25992168e-05
2.38000000e+00	1.49692122e-03	5.30746303e-05
2.38500000e+00	1.47545486e-03	5.16011598e-05
2.39000000e+00	1.46355853e-03	5.14002348e-05
2.39500000e+00	1.44742392e-03	5.10313102e-05
2.40000000e+00	1.45551852e-03	5.20358169e-05
2.40500000e+00	1.44463316e-03	5.06662745e-05
2.41000000e+00	1.42650699e-03	5.02704808e-05
2.41500000e+00	1.41996815e-03	4.99460675e-05
2.42000000e+00	1.41517224e-03	5.04138190e-05
2.42500000e+00	1.39314764e-03	4.96683058e-05
2.43000000e+00	1.40412529e-03	4.95231769e-05
2.43500000e+00	1.39326247e-03	4.93599475e-05
2.44000000e+00	1.40720947e-03	4.98713781e-05
2.44500000e+00	1.36513709e-03	4.90967598e-05
2.45000000e+00	1.36119655e-03	4.81249418e-05
2.45500000e+00	1.36618220e-03	4.83971181e-05
2.46000000e+00	1.35601971e-03	4.82245040e-05
2.46500000e+00	1.34073354e-03	4.82775668e-05
2.47000000e+00	1.34413826e-03	4.78554810e-05
2.47500000e+00	1.32432243e-03	4.69563668e-05
2.48000000e+00	1.32228201e-03	4.72503067e-05
2.48500000e+00	1.29903192e-03	4.64841340e-05
2.49000000e+00	1.30503401e-03	4.73025224e-05
2.49500000e+00	1.30399898e-03	4.63490747e-05
2.50000000e+00	1.27899486e-03	4.55903117e-05
2.50500000e+00	1.28856259e-03	4.61756487e-05
2.51000000e+00	1.28239957e-03	4.63537825e-05
2.51500000e+00	1.26917701e-03	4.58809431e-05
2.52000000e+00	1.25396120e-03	4.49335865e-05
2.52500000e+00	1.24950741e-03	4.49686533e-05
2.53000000e+00	1.23159619e-03	4.48209940e-05
2.53500000e+00	1.24966888e-03	4.59667933e-05
2.54000000e+00	1.23695211e-03	4.47498812e-05
2.54500000e+00	1.23588850e-03	4.48291712e-05
2.55000000e+00	1.22188806e-03	4.45978503e-05
2.55500000e+00	1.21035286e-03	4.45302614e-05
2.56000000e+00	1.19951135e-03	4.43832633e-05
2.56500000e+00	1.19943009e-03	4.39836170e-05
2.57000000e+00	1.18469536e-03	4.36467625e-05
2.57500000e+00	1.17686101e-03	4.34879566e-05
2.58000000e+00	1.17401601e-03	4.41286746e-05
2.58500000e+00	1.16632726e-03	4.34999599e-05
2.59000000e+00	1.14739082e-03	4.26331776e-05
2.59500000e+00	1.14950407e-03	4.28044645e-05
2.60000000e+00	1.15357424e-03	4.33584378e-05
2.60500000e+00	1.17173918e-03	4.49349978e-05
2.61000000e+00	1.14706730e-03	5.00941389e-05
2.61500000e+00	1.14306670e-03	5.53673961e-05
2.62000000e+00	1.13590369e-03	6.04793478e-05
2.62500000e+00	1.14520955e-03	6.57464797e-05
2.63000000e+00	1.10538251e-03	7.02468481e-05
2.63500000e+00	1.14173751e-03	8.05712403e-05
2.64000000e+00	1.09558271e-03	8.53892487e-05
2.64500000e+00	1.13592779e-03	9.45464689e-05
2.65000000e+00	1.08234106e-03	9.52756481e-05
2.65500000e+00	1.07379850e-03	1.01371386e-04
2.66000000e+00	1.03758535e-03	1.05024299e-04
2.66500000e+00	1.07519897e-03	1.22883815e-04
2.67000000e+00	1.04057429e-03	1.28930895e-04
2.67500000e+00	1.09071478e-03	1.56553143e-04
2.68000000e+00	1.05291547e-03	1.75902077e-04
2.68500000e+00	1.03731446e-03	2.29447707e-04
2.69000000e+00	1.06501547e-03	3.86395199e-04
2.69500000e+00	0.00000000e+00	0.00000000e+00
2.70000000e+00	0.00000000e+00	0.00000000e+00
