% Filename : WDL7_00012_00274.h5
% Date & Time : 30-Oct-2025 15:02:38
% X-ray Energy (keV) : 13.30001
% Exposure Time (s) : 0.500
% Photodiode Value : 126413.000
% I0 of Sample : 0
% I0 of Standard : 1
% 
% q(A^-1)   I(q)    I(q)_SE
8.40000000e-01	0.00000000e+00	0.00000000e+00
8.45000000e-01	9.12572010e-03	1.59291974e-03
8.50000000e-01	8.75155061e-03	8.08082244e-04
8.55000000e-01	8.58754487e-03	6.98840708e-04
8.60000000e-01	8.60246043e-03	6.05723210e-04
8.65000000e-01	8.71881026e-03	5.65809730e-04
8.70000000e-01	8.98308688e-03	5.55998729e-04
8.75000000e-01	9.25614142e-03	5.50761465e-04
8.80000000e-01	9.67681445e-03	5.56962852e-04
8.85000000e-01	9.63919500e-03	5.24453271e-04
8.90000000e-01	9.36798887e-03	4.98624180e-04
8.95000000e-01	9.35393415e-03	4.84019673e-04
9.00000000e-01	9.38250802e-03	4.80887507e-04
9.05000000e-01	9.51372587e-03	4.66200738e-04
9.10000000e-01	9.52872811e-03	4.58292419e-04
9.15000000e-01	9.72726849e-03	4.60483295e-04
9.20000000e-01	9.87001339e-03	4.66727313e-04
9.25000000e-01	9.96220904e-03	4.50637555e-04
9.30000000e-01	1.01191067e-02	4.53053713e-04
9.35000000e-01	1.02842927e-02	4.51705551e-04
9.40000000e-01	1.05574350e-02	4.65001624e-04
9.45000000e-01	1.06923227e-02	4.59123845e-04
9.50000000e-01	1.08530240e-02	4.59381506e-04
9.55000000e-01	1.10875747e-02	4.60728802e-04
9.60000000e-01	1.13385464e-02	4.71725603e-04
9.65000000e-01	1.16419365e-02	4.78986595e-04
9.70000000e-01	1.20602213e-02	5.02436696e-04
9.75000000e-01	1.20571350e-02	4.79700332e-04
9.80000000e-01	1.23294552e-02	4.86426147e-04
9.85000000e-01	1.26157711e-02	4.98184367e-04
9.90000000e-01	1.28888053e-02	4.93663489e-04
9.95000000e-01	1.31329806e-02	5.00558277e-04
1.00000000e+00	1.34569377e-02	5.10322287e-04
1.00500000e+00	1.37733514e-02	5.22636851e-04
1.01000000e+00	1.40537174e-02	5.21805078e-04
1.01500000e+00	1.43293058e-02	5.26673541e-04
1.02000000e+00	1.45886734e-02	5.35818391e-04
1.02500000e+00	1.48655834e-02	5.39189171e-04
1.03000000e+00	1.51779612e-02	5.48173635e-04
1.03500000e+00	1.53533454e-02	5.46393259e-04
1.04000000e+00	1.55756008e-02	5.50522376e-04
1.04500000e+00	1.58465987e-02	5.60066582e-04
1.05000000e+00	1.60814665e-02	5.66059883e-04
1.05500000e+00	1.68175732e-02	6.86599614e-04
1.06000000e+00	6.05044862e-02	3.21108501e-02
1.06500000e+00	1.65458580e-02	5.77855973e-04
1.07000000e+00	1.64254645e-02	5.65252385e-04
1.07500000e+00	1.64361052e-02	5.61611431e-04
1.08000000e+00	1.65181672e-02	5.61108887e-04
1.08500000e+00	1.65261093e-02	5.62265861e-04
1.09000000e+00	1.65550107e-02	5.66464557e-04
1.09500000e+00	1.65514640e-02	5.55062930e-04
1.10000000e+00	1.65318639e-02	5.58148181e-04
1.10500000e+00	1.66091981e-02	5.62644515e-04
1.11000000e+00	1.66219728e-02	5.63752378e-04
1.11500000e+00	1.66895213e-02	5.61987410e-04
1.12000000e+00	1.67649458e-02	5.67167849e-04
1.12500000e+00	1.67604651e-02	5.65702088e-04
1.13000000e+00	1.68378406e-02	5.75276147e-04
1.13500000e+00	1.69197205e-02	5.70948853e-04
1.14000000e+00	1.69844687e-02	5.72354874e-04
1.14500000e+00	1.71129309e-02	5.81401864e-04
1.15000000e+00	1.71492934e-02	5.85848085e-04
1.15500000e+00	1.72072169e-02	5.81362341e-04
1.16000000e+00	1.71938321e-02	5.82802127e-04
1.16500000e+00	1.71836520e-02	5.82043168e-04
1.17000000e+00	1.71857754e-02	5.89444449e-04
1.17500000e+00	1.71939424e-02	5.81169705e-04
1.18000000e+00	1.70921446e-02	5.80552151e-04
1.18500000e+00	1.70272596e-02	5.77601385e-04
1.19000000e+00	1.68828144e-02	5.78958570e-04
1.19500000e+00	1.67258420e-02	5.66746463e-04
1.20000000e+00	1.65047400e-02	5.62491914e-04
1.20500000e+00	1.63014766e-02	5.54267061e-04
1.21000000e+00	1.62136616e-02	5.58229888e-04
1.21500000e+00	1.62412450e-02	5.50339183e-04
1.22000000e+00	1.62715355e-02	5.51799166e-04
1.22500000e+00	1.59729929e-02	5.43926116e-04
1.23000000e+00	1.55967699e-02	5.35050774e-04
1.23500000e+00	1.52318261e-02	5.19283236e-04
1.24000000e+00	1.50080631e-02	5.09365852e-04
1.24500000e+00	1.46613389e-02	5.01245912e-04
1.25000000e+00	1.44754240e-02	4.97739490e-04
1.25500000e+00	1.42540702e-02	4.84378939e-04
1.26000000e+00	1.40727842e-02	4.80972625e-04
1.26500000e+00	1.39502128e-02	4.75123017e-04
1.27000000e+00	1.38284488e-02	4.77890283e-04
1.27500000e+00	1.37837654e-02	4.71716030e-04
1.28000000e+00	1.36743260e-02	4.64919337e-04
1.28500000e+00	1.36409373e-02	4.66434037e-04
1.29000000e+00	1.35687108e-02	4.68030748e-04
1.29500000e+00	1.35172048e-02	4.61317286e-04
1.30000000e+00	1.34739863e-02	4.58974007e-04
1.30500000e+00	1.34672502e-02	4.60908775e-04
1.31000000e+00	1.34356331e-02	4.65299588e-04
1.31500000e+00	1.35163716e-02	4.62350917e-04
1.32000000e+00	1.35337722e-02	4.62404223e-04
1.32500000e+00	1.35898782e-02	4.65718154e-04
1.33000000e+00	1.36062515e-02	4.71762104e-04
1.33500000e+00	1.36694973e-02	4.67478238e-04
1.34000000e+00	1.37471436e-02	4.70676862e-04
1.34500000e+00	1.37944697e-02	4.73918341e-04
1.35000000e+00	1.38946606e-02	4.82043905e-04
1.35500000e+00	1.40016023e-02	4.79100243e-04
1.36000000e+00	1.41845920e-02	4.84475641e-04
1.36500000e+00	1.43453007e-02	4.91661959e-04
1.37000000e+00	1.45510776e-02	5.06198191e-04
1.37500000e+00	1.49190541e-02	5.11441242e-04
1.38000000e+00	1.52596240e-02	5.25536789e-04
1.38500000e+00	1.55325303e-02	5.38127173e-04
1.39000000e+00	1.58226531e-02	5.52813424e-04
1.39500000e+00	1.62652735e-02	5.61334425e-04
1.40000000e+00	1.67311612e-02	5.90816432e-04
1.40500000e+00	1.73076152e-02	6.57350290e-04
1.41000000e+00	1.87210840e-02	7.44245797e-04
1.41500000e+00	1.89035118e-02	7.78332212e-04
1.42000000e+00	1.87684022e-02	8.03789802e-04
1.42500000e+00	1.91093113e-02	8.42275899e-04
1.43000000e+00	1.93913628e-02	8.87255232e-04
1.43500000e+00	1.98884571e-02	9.37930495e-04
1.44000000e+00	2.03764912e-02	9.97992214e-04
1.44500000e+00	2.09399252e-02	1.05213965e-03
1.45000000e+00	2.14179647e-02	1.03995579e-03
1.45500000e+00	2.14544693e-02	9.36121822e-04
1.46000000e+00	2.13861484e-02	9.11647515e-04
1.46500000e+00	2.12514178e-02	8.89647538e-04
1.47000000e+00	2.12293424e-02	8.87318016e-04
1.47500000e+00	2.12541365e-02	8.63740193e-04
1.48000000e+00	2.27064021e-02	1.20750911e-03
1.48500000e+00	2.10542992e-02	8.47574408e-04
1.49000000e+00	2.10593705e-02	8.48843357e-04
1.49500000e+00	2.11031319e-02	8.31660835e-04
1.50000000e+00	2.12641459e-02	8.35486671e-04
1.50500000e+00	2.16176988e-02	8.54205925e-04
1.51000000e+00	2.20987836e-02	8.75370816e-04
1.51500000e+00	2.26359584e-02	8.82735854e-04
1.52000000e+00	2.34030757e-02	9.10183723e-04
1.52500000e+00	2.38532946e-02	9.27097464e-04
1.53000000e+00	2.43539145e-02	9.52668538e-04
1.53500000e+00	2.49330224e-02	9.47767085e-04
1.54000000e+00	2.58730580e-02	9.82690089e-04
1.54500000e+00	2.66956612e-02	1.01192203e-03
1.55000000e+00	2.77540517e-02	1.04955548e-03
1.55500000e+00	2.88420911e-02	1.06606535e-03
1.56000000e+00	2.98536388e-02	1.10591795e-03
1.56500000e+00	3.10879836e-02	1.14567908e-03
1.57000000e+00	3.20533553e-02	1.17297469e-03
1.57500000e+00	3.29053045e-02	1.18183691e-03
1.58000000e+00	3.38642501e-02	1.21423992e-03
1.58500000e+00	3.44618610e-02	1.23591412e-03
1.59000000e+00	3.49437767e-02	1.25453923e-03
1.59500000e+00	3.50615477e-02	1.23438096e-03
1.60000000e+00	3.51189784e-02	1.23565751e-03
1.60500000e+00	3.46410365e-02	1.21992268e-03
1.61000000e+00	3.41696982e-02	1.19877500e-03
1.61500000e+00	3.33289586e-02	1.15814823e-03
1.62000000e+00	3.23966042e-02	1.13035540e-03
1.62500000e+00	3.15029837e-02	1.11190533e-03
1.63000000e+00	3.16477958e-02	1.10396476e-03
1.63500000e+00	3.20793448e-02	1.13185631e-03
1.64000000e+00	2.81548018e-02	9.83891723e-04
1.64500000e+00	2.58150158e-02	9.11416755e-04
1.65000000e+00	2.40863419e-02	8.40661024e-04
1.65500000e+00	2.27052867e-02	7.91214605e-04
1.66000000e+00	2.20769280e-02	9.54081612e-04
1.66500000e+00	2.05447165e-02	7.38988577e-04
1.67000000e+00	1.93874223e-02	6.72817134e-04
1.67500000e+00	1.84909462e-02	6.43068735e-04
1.68000000e+00	1.77167602e-02	6.18118282e-04
1.68500000e+00	1.70958628e-02	6.05977039e-04
1.69000000e+00	1.63716914e-02	5.68926834e-04
1.69500000e+00	1.58007500e-02	5.48221068e-04
1.70000000e+00	1.52575380e-02	5.35353458e-04
1.70500000e+00	1.48825912e-02	5.24343177e-04
1.71000000e+00	1.44374715e-02	5.02056682e-04
1.71500000e+00	1.41357755e-02	4.91121046e-04
1.72000000e+00	1.38231932e-02	4.84079619e-04
1.72500000e+00	1.34997156e-02	4.75584601e-04
1.73000000e+00	1.33376036e-02	4.63872120e-04
1.73500000e+00	1.30678936e-02	4.55612388e-04
1.74000000e+00	1.28627731e-02	4.49451117e-04
1.74500000e+00	1.27051287e-02	4.49190592e-04
1.75000000e+00	1.25900602e-02	4.36410945e-04
1.75500000e+00	1.25739688e-02	4.38926333e-04
1.76000000e+00	1.26759957e-02	4.42134846e-04
1.76500000e+00	1.24937771e-02	4.41412477e-04
1.77000000e+00	1.20620772e-02	4.18968362e-04
1.77500000e+00	1.18296967e-02	4.12033430e-04
1.78000000e+00	1.16589434e-02	4.07357980e-04
1.78500000e+00	1.16793799e-02	4.12420359e-04
1.79000000e+00	1.18039698e-02	4.11250843e-04
1.79500000e+00	1.15697713e-02	4.04192455e-04
1.80000000e+00	1.12239626e-02	3.93198189e-04
1.80500000e+00	1.10918947e-02	3.90850233e-04
1.81000000e+00	1.10177663e-02	3.82718874e-04
1.81500000e+00	1.10006539e-02	3.82290186e-04
1.82000000e+00	1.09062990e-02	3.81530997e-04
1.82500000e+00	1.09565216e-02	3.85541716e-04
1.83000000e+00	1.09430960e-02	3.80317729e-04
1.83500000e+00	1.08954718e-02	3.79223843e-04
1.84000000e+00	1.08792214e-02	3.80721960e-04
1.84500000e+00	1.08673310e-02	3.82489031e-04
1.85000000e+00	1.15172321e-02	4.01683584e-04
1.85500000e+00	1.28107634e-02	4.58904355e-04
1.86000000e+00	1.10933654e-02	3.89050898e-04
1.86500000e+00	1.06673420e-02	3.74742387e-04
1.87000000e+00	1.05826680e-02	3.67775372e-04
1.87500000e+00	1.05328846e-02	3.67175814e-04
1.88000000e+00	1.05375340e-02	3.69459148e-04
1.88500000e+00	1.05734585e-02	3.75170294e-04
1.89000000e+00	1.04145331e-02	3.62647770e-04
1.89500000e+00	1.03501178e-02	3.61484479e-04
1.90000000e+00	1.03385570e-02	3.62081272e-04
1.90500000e+00	1.03097253e-02	3.61327991e-04
1.91000000e+00	1.03699552e-02	3.61048616e-04
1.91500000e+00	1.04355787e-02	3.63435336e-04
1.92000000e+00	1.07319089e-02	3.76145685e-04
1.92500000e+00	1.12094931e-02	3.94367971e-04
1.93000000e+00	1.06293508e-02	3.69449974e-04
1.93500000e+00	1.07614988e-02	3.75743521e-04
1.94000000e+00	1.14150027e-02	4.55232220e-04
1.94500000e+00	1.07845384e-02	3.78396591e-04
1.95000000e+00	1.07948869e-02	3.74699445e-04
1.95500000e+00	1.08361270e-02	3.77757904e-04
1.96000000e+00	1.09292342e-02	3.83239685e-04
1.96500000e+00	1.10179696e-02	3.86568846e-04
1.97000000e+00	1.10871785e-02	3.84330124e-04
1.97500000e+00	1.10690009e-02	3.86276639e-04
1.98000000e+00	1.10952261e-02	3.88859950e-04
1.98500000e+00	1.10740966e-02	3.88761218e-04
1.99000000e+00	1.10102603e-02	3.81637450e-04
1.99500000e+00	1.09619620e-02	3.81812219e-04
2.00000000e+00	1.08773531e-02	3.81504196e-04
2.00500000e+00	1.09352248e-02	3.84158915e-04
2.01000000e+00	1.08584668e-02	4.18557466e-04
2.01500000e+00	1.07181316e-02	4.38759516e-04
2.02000000e+00	1.06808138e-02	4.66260046e-04
2.02500000e+00	1.06358981e-02	4.82413043e-04
2.03000000e+00	1.06536068e-02	5.11731002e-04
2.03500000e+00	1.05428104e-02	5.28735651e-04
2.04000000e+00	1.06330360e-02	5.57500157e-04
2.04500000e+00	1.07280366e-02	5.91745202e-04
2.05000000e+00	1.09355940e-02	6.33402866e-04
2.05500000e+00	1.14424906e-02	6.49656862e-04
2.06000000e+00	1.23818648e-02	6.11346828e-04
2.06500000e+00	1.46904446e-02	6.96167361e-04
2.07000000e+00	2.32503235e-02	1.06928121e-03
2.07500000e+00	4.74917814e-02	2.26360896e-03
2.08000000e+00	3.80939043e-02	1.86185320e-03
2.08500000e+00	1.94568421e-02	8.62046124e-04
2.09000000e+00	1.39356620e-02	5.86011584e-04
2.09500000e+00	1.20815171e-02	5.01693480e-04
2.10000000e+00	1.12881698e-02	4.65481196e-04
2.10500000e+00	1.08710260e-02	4.46704470e-04
2.11000000e+00	1.06197904e-02	4.20490040e-04
2.11500000e+00	1.04326968e-02	4.08971951e-04
2.12000000e+00	1.03314672e-02	4.02727748e-04
2.12500000e+00	1.02612121e-02	3.98779864e-04
2.13000000e+00	1.01342722e-02	3.77737054e-04
2.13500000e+00	1.02000411e-02	3.79629365e-04
2.14000000e+00	9.97494193e-03	3.64083315e-04
2.14500000e+00	9.84950574e-03	3.60058304e-04
2.15000000e+00	9.87864071e-03	3.49378692e-04
2.15500000e+00	9.75822347e-03	3.45714787e-04
2.16000000e+00	9.75525085e-03	3.43927998e-04
2.16500000e+00	9.69792804e-03	3.44222554e-04
2.17000000e+00	9.67250377e-03	3.35095795e-04
2.17500000e+00	9.61702009e-03	3.33928035e-04
2.18000000e+00	9.72340920e-03	3.38934017e-04
2.18500000e+00	9.77693840e-03	3.43246699e-04
2.19000000e+00	9.58266089e-03	3.34725685e-04
2.19500000e+00	9.45739707e-03	3.28310785e-04
2.20000000e+00	9.27785772e-03	3.22757044e-04
2.20500000e+00	9.20212960e-03	3.21060030e-04
2.21000000e+00	9.22784830e-03	3.23605901e-04
2.21500000e+00	9.49043253e-03	3.29690029e-04
2.22000000e+00	9.59678965e-03	3.33540690e-04
2.22500000e+00	9.10848112e-03	3.18277432e-04
2.23000000e+00	8.90252845e-03	3.12711262e-04
2.23500000e+00	8.77828291e-03	3.04090516e-04
2.24000000e+00	8.75122753e-03	3.03361508e-04
2.24500000e+00	8.69423835e-03	3.03408665e-04
2.25000000e+00	8.62342841e-03	3.03478680e-04
2.25500000e+00	8.57559753e-03	2.96410797e-04
2.26000000e+00	8.56572999e-03	2.97197843e-04
2.26500000e+00	8.53934239e-03	2.97259963e-04
2.27000000e+00	8.55529578e-03	3.02989504e-04
2.27500000e+00	8.46972917e-03	2.92972148e-04
2.28000000e+00	8.41828164e-03	2.91313273e-04
2.28500000e+00	8.36395790e-03	2.91434745e-04
2.29000000e+00	8.45515347e-03	2.96169414e-04
2.29500000e+00	8.57168019e-03	2.99291837e-04
2.30000000e+00	8.68803762e-03	3.00522119e-04
2.30500000e+00	8.76804394e-03	3.03988667e-04
2.31000000e+00	8.85877682e-03	3.08822189e-04
2.31500000e+00	8.83783073e-03	3.10476860e-04
2.32000000e+00	8.95866287e-03	3.08353357e-04
2.32500000e+00	9.16110137e-03	3.17966578e-04
2.33000000e+00	1.00500993e-02	3.51692510e-04
2.33500000e+00	1.00348788e-02	3.54838184e-04
2.34000000e+00	9.53096948e-03	3.29829939e-04
2.34500000e+00	9.57565469e-03	3.31524476e-04
2.35000000e+00	9.68055940e-03	3.36766480e-04
2.35500000e+00	9.87627657e-03	3.48280245e-04
2.36000000e+00	1.00036955e-02	3.48105716e-04
2.36500000e+00	1.01648130e-02	3.53419935e-04
2.37000000e+00	1.03256568e-02	3.59484146e-04
2.37500000e+00	1.04341464e-02	3.66497113e-04
2.38000000e+00	1.06540321e-02	3.76299820e-04
2.38500000e+00	1.07911596e-02	3.75581081e-04
2.39000000e+00	1.09451244e-02	3.82460043e-04
2.39500000e+00	1.11619217e-02	3.92380946e-04
2.40000000e+00	1.13478221e-02	4.05258892e-04
2.40500000e+00	1.13618311e-02	3.97406021e-04
2.41000000e+00	1.14738777e-02	4.02976422e-04
2.41500000e+00	1.17819284e-02	4.13742659e-04
2.42000000e+00	1.24420710e-02	4.43168440e-04
2.42500000e+00	1.37933268e-02	4.91257689e-04
2.43000000e+00	1.60847660e-02	5.67858264e-04
2.43500000e+00	1.76498909e-02	6.24984436e-04
2.44000000e+00	1.65825115e-02	5.89256166e-04
2.44500000e+00	1.46338792e-02	5.27386281e-04
2.45000000e+00	1.34293028e-02	4.76287279e-04
2.45500000e+00	1.30899631e-02	4.68426832e-04
2.46000000e+00	1.23646652e-02	4.41827485e-04
2.46500000e+00	1.15698928e-02	4.18323788e-04
2.47000000e+00	1.12697019e-02	4.03364029e-04
2.47500000e+00	1.08910854e-02	3.88179925e-04
2.48000000e+00	1.07001833e-02	3.84675045e-04
2.48500000e+00	1.06352335e-02	3.82578321e-04
2.49000000e+00	1.06532475e-02	3.89245330e-04
2.49500000e+00	1.03970842e-02	3.72729068e-04
2.50000000e+00	1.01724624e-02	3.65977993e-04
2.50500000e+00	1.00909258e-02	3.65287227e-04
2.51000000e+00	1.01964480e-02	3.72243597e-04
2.51500000e+00	1.06984555e-02	3.91014652e-04
2.52000000e+00	1.23978020e-02	4.51458022e-04
2.52500000e+00	1.51253424e-02	5.66755398e-04
2.53000000e+00	1.77995258e-02	9.70004016e-04
2.53500000e+00	1.40019722e-02	5.64886603e-04
2.54000000e+00	1.12223279e-02	4.17180998e-04
2.54500000e+00	1.02116868e-02	3.76804529e-04
2.55000000e+00	9.68498596e-03	3.58059488e-04
2.55500000e+00	9.36636993e-03	3.49017649e-04
2.56000000e+00	9.17972399e-03	3.43626595e-04
2.56500000e+00	9.09138011e-03	3.36819896e-04
2.57000000e+00	8.99705019e-03	3.34990018e-04
2.57500000e+00	8.85751627e-03	3.31179980e-04
2.58000000e+00	8.76916138e-03	3.33596559e-04
2.58500000e+00	8.78497176e-03	3.31483655e-04
2.59000000e+00	8.81335346e-03	3.31459824e-04
2.59500000e+00	8.75144234e-03	3.31665050e-04
2.60000000e+00	8.64680579e-03	3.29186220e-04
2.60500000e+00	8.74532829e-03	3.40407938e-04
2.61000000e+00	8.46408468e-03	3.79107410e-04
2.61500000e+00	8.31367224e-03	4.16852565e-04
2.62000000e+00	7.97442218e-03	4.44925162e-04
2.62500000e+00	7.56433617e-03	4.63592512e-04
2.63000000e+00	8.00474567e-03	5.33097006e-04
2.63500000e+00	8.69655916e-03	6.19665480e-04
2.64000000e+00	1.00468754e-02	7.87064760e-04
2.64500000e+00	9.52647003e-03	7.82812467e-04
2.65000000e+00	9.37973555e-03	8.12635316e-04
2.65500000e+00	9.86478686e-03	9.21767266e-04
2.66000000e+00	9.61398256e-03	9.59654651e-04
2.66500000e+00	9.32986006e-03	1.04629207e-03
2.67000000e+00	9.33624507e-03	1.13574656e-03
2.67500000e+00	9.51551756e-03	1.34960644e-03
2.68000000e+00	9.66029678e-03	1.59279854e-03
2.68500000e+00	9.44861216e-03	2.08213636e-03
2.69000000e+00	7.45021350e-03	2.69261958e-03
2.69500000e+00	0.00000000e+00	0.00000000e+00
2.70000000e+00	0.00000000e+00	0.00000000e+00
