% Filename : WDL7_00012_00261.h5
% Date & Time : 30-Oct-2025 15:01:51
% X-ray Energy (keV) : 13.30001
% Exposure Time (s) : 0.500
% Photodiode Value : 136303.000
% I0 of Sample : 0
% I0 of Standard : 1
% 
% q(A^-1)   I(q)    I(q)_SE
8.40000000e-01	0.00000000e+00	0.00000000e+00
8.45000000e-01	2.82368985e-03	4.95388429e-04
8.50000000e-01	2.59869565e-03	2.41733917e-04
8.55000000e-01	2.54437537e-03	2.08126512e-04
8.60000000e-01	2.55669004e-03	1.80913230e-04
8.65000000e-01	2.55492131e-03	1.66376868e-04
8.70000000e-01	2.59512389e-03	1.61523294e-04
8.75000000e-01	2.56460490e-03	1.53329225e-04
8.80000000e-01	2.57752119e-03	1.49057052e-04
8.85000000e-01	2.57933803e-03	1.41102785e-04
8.90000000e-01	2.57544243e-03	1.37722160e-04
8.95000000e-01	2.59604747e-03	1.35022999e-04
9.00000000e-01	2.57206276e-03	1.32434969e-04
9.05000000e-01	2.61181892e-03	1.28559608e-04
9.10000000e-01	2.62398177e-03	1.26798806e-04
9.15000000e-01	2.59766682e-03	1.23715132e-04
9.20000000e-01	2.60994409e-03	1.24087840e-04
9.25000000e-01	2.64559070e-03	1.20253649e-04
9.30000000e-01	2.63832680e-03	1.18727959e-04
9.35000000e-01	2.64706000e-03	1.16804017e-04
9.40000000e-01	2.63807729e-03	1.16842389e-04
9.45000000e-01	2.64796355e-03	1.14356202e-04
9.50000000e-01	2.67100607e-03	1.13585716e-04
9.55000000e-01	2.66683420e-03	1.11464065e-04
9.60000000e-01	2.69915713e-03	1.12928003e-04
9.65000000e-01	2.66901642e-03	1.09747709e-04
9.70000000e-01	2.67639163e-03	1.08322402e-04
9.75000000e-01	2.66886838e-03	1.06698653e-04
9.80000000e-01	2.69040028e-03	1.06632202e-04
9.85000000e-01	2.69301636e-03	1.06936846e-04
9.90000000e-01	2.68915233e-03	1.03567255e-04
9.95000000e-01	2.69787628e-03	1.03374948e-04
1.00000000e+00	2.71040904e-03	1.03414785e-04
1.00500000e+00	2.67756688e-03	1.02157786e-04
1.01000000e+00	2.70160623e-03	1.00870149e-04
1.01500000e+00	2.70137561e-03	9.98545183e-05
1.02000000e+00	2.69067147e-03	9.95571426e-05
1.02500000e+00	2.68506329e-03	9.80538299e-05
1.03000000e+00	2.68717124e-03	9.77536864e-05
1.03500000e+00	2.67858637e-03	9.61399969e-05
1.04000000e+00	2.69145719e-03	9.60952820e-05
1.04500000e+00	2.69116093e-03	9.60624606e-05
1.05000000e+00	2.66569538e-03	9.45069847e-05
1.05500000e+00	2.65111284e-03	9.26162148e-05
1.06000000e+00	2.65613654e-03	9.24988451e-05
1.06500000e+00	2.69547709e-03	9.39387183e-05
1.07000000e+00	2.68131073e-03	9.33721884e-05
1.07500000e+00	2.68420859e-03	9.27228231e-05
1.08000000e+00	2.67469723e-03	9.18383438e-05
1.08500000e+00	2.68093352e-03	9.21699475e-05
1.09000000e+00	2.69951774e-03	9.32717132e-05
1.09500000e+00	2.69730104e-03	9.13205706e-05
1.10000000e+00	2.73353193e-03	9.32096311e-05
1.10500000e+00	2.73764012e-03	9.34964662e-05
1.11000000e+00	2.72808819e-03	9.34226169e-05
1.11500000e+00	2.72722628e-03	9.27270896e-05
1.12000000e+00	2.75810326e-03	9.41909154e-05
1.12500000e+00	2.76311686e-03	9.40334090e-05
1.13000000e+00	2.75802590e-03	9.50489328e-05
1.13500000e+00	2.76215004e-03	9.39695307e-05
1.14000000e+00	2.76652047e-03	9.39593824e-05
1.14500000e+00	2.80061714e-03	9.57832441e-05
1.15000000e+00	2.80347457e-03	9.64606719e-05
1.15500000e+00	2.78726708e-03	9.49013412e-05
1.16000000e+00	2.79309370e-03	9.55085236e-05
1.16500000e+00	2.79294295e-03	9.52940595e-05
1.17000000e+00	2.80405584e-03	9.68875636e-05
1.17500000e+00	2.82515775e-03	9.62072934e-05
1.18000000e+00	2.83690155e-03	9.70459821e-05
1.18500000e+00	2.82626408e-03	9.65682562e-05
1.19000000e+00	2.82109337e-03	9.74979259e-05
1.19500000e+00	2.86010905e-03	9.76012534e-05
1.20000000e+00	2.84054465e-03	9.74549733e-05
1.20500000e+00	2.82758963e-03	9.68093310e-05
1.21000000e+00	2.86046992e-03	9.92163760e-05
1.21500000e+00	2.85890003e-03	9.75651491e-05
1.22000000e+00	2.86607514e-03	9.78975900e-05
1.22500000e+00	2.86064389e-03	9.81907332e-05
1.23000000e+00	2.84146797e-03	9.82092730e-05
1.23500000e+00	2.85585536e-03	9.81186262e-05
1.24000000e+00	2.87030039e-03	9.80508378e-05
1.24500000e+00	2.87888953e-03	9.91030940e-05
1.25000000e+00	2.85781880e-03	9.90213858e-05
1.25500000e+00	2.88483223e-03	9.87572601e-05
1.26000000e+00	2.86100839e-03	9.85744337e-05
1.26500000e+00	2.87002311e-03	9.84780157e-05
1.27000000e+00	2.87370108e-03	1.00049077e-04
1.27500000e+00	2.85678850e-03	9.84609998e-05
1.28000000e+00	2.88032278e-03	9.85548926e-05
1.28500000e+00	2.86215950e-03	9.85254686e-05
1.29000000e+00	2.88870265e-03	1.00342983e-04
1.29500000e+00	2.87009246e-03	9.86347640e-05
1.30000000e+00	2.88247486e-03	9.88502088e-05
1.30500000e+00	2.88901226e-03	9.95683966e-05
1.31000000e+00	2.88372428e-03	1.00611556e-04
1.31500000e+00	2.87999168e-03	9.91828541e-05
1.32000000e+00	2.88307997e-03	9.91949338e-05
1.32500000e+00	2.88396199e-03	9.95106695e-05
1.33000000e+00	2.85689608e-03	9.97242566e-05
1.33500000e+00	2.88294249e-03	9.92886296e-05
1.34000000e+00	2.88874205e-03	9.95957531e-05
1.34500000e+00	2.85728246e-03	9.88751446e-05
1.35000000e+00	2.87169838e-03	1.00266716e-04
1.35500000e+00	2.87202973e-03	9.90078418e-05
1.36000000e+00	2.87172565e-03	9.87851027e-05
1.36500000e+00	2.89365688e-03	9.98977966e-05
1.37000000e+00	2.87722177e-03	1.00743671e-04
1.37500000e+00	2.87491421e-03	9.90800968e-05
1.38000000e+00	2.86822342e-03	9.91561358e-05
1.38500000e+00	2.89073949e-03	1.00455516e-04
1.39000000e+00	2.85029540e-03	9.96486223e-05
1.39500000e+00	2.88872485e-03	9.95633683e-05
1.40000000e+00	2.90133657e-03	1.02923777e-04
1.40500000e+00	2.83646725e-03	1.08379448e-04
1.41000000e+00	2.82798956e-03	1.13196735e-04
1.41500000e+00	2.83941603e-03	1.17807245e-04
1.42000000e+00	2.81055106e-03	1.21360348e-04
1.42500000e+00	2.81832035e-03	1.25188932e-04
1.43000000e+00	2.76163125e-03	1.27237406e-04
1.43500000e+00	2.76045563e-03	1.31094657e-04
1.44000000e+00	2.74459936e-03	1.35460679e-04
1.44500000e+00	2.73859950e-03	1.38858358e-04
1.45000000e+00	2.81958780e-03	1.38195761e-04
1.45500000e+00	2.82441451e-03	1.24328677e-04
1.46000000e+00	2.81107387e-03	1.20770361e-04
1.46500000e+00	2.80007646e-03	1.18224734e-04
1.47000000e+00	2.82339661e-03	1.18940306e-04
1.47500000e+00	2.82640843e-03	1.15659143e-04
1.48000000e+00	2.83498897e-03	1.14660293e-04
1.48500000e+00	2.82901893e-03	1.14596596e-04
1.49000000e+00	2.81013105e-03	1.14009971e-04
1.49500000e+00	2.82665315e-03	1.12171143e-04
1.50000000e+00	2.82563585e-03	1.11740801e-04
1.50500000e+00	2.81201740e-03	1.11856563e-04
1.51000000e+00	2.80345481e-03	1.11710767e-04
1.51500000e+00	2.85210909e-03	1.11728855e-04
1.52000000e+00	2.83705597e-03	1.10825060e-04
1.52500000e+00	2.82241423e-03	1.10033314e-04
1.53000000e+00	2.83805503e-03	1.11439180e-04
1.53500000e+00	2.85071830e-03	1.08719874e-04
1.54000000e+00	2.82059722e-03	1.07411753e-04
1.54500000e+00	2.83071413e-03	1.07553920e-04
1.55000000e+00	2.80107372e-03	1.06062242e-04
1.55500000e+00	2.79345066e-03	1.03415578e-04
1.56000000e+00	2.80207419e-03	1.03978342e-04
1.56500000e+00	2.77729282e-03	1.02529654e-04
1.57000000e+00	2.77162766e-03	1.01702246e-04
1.57500000e+00	2.77303667e-03	9.98053379e-05
1.58000000e+00	2.73472047e-03	9.81740937e-05
1.58500000e+00	2.73700213e-03	9.82918544e-05
1.59000000e+00	2.72875828e-03	9.80941010e-05
1.59500000e+00	2.72354001e-03	9.59889821e-05
1.60000000e+00	2.70232821e-03	9.52465406e-05
1.60500000e+00	2.70547825e-03	9.53706051e-05
1.61000000e+00	2.69875398e-03	9.47562486e-05
1.61500000e+00	2.71695282e-03	9.45633110e-05
1.62000000e+00	2.68136145e-03	9.36954950e-05
1.62500000e+00	2.68589154e-03	9.48994873e-05
1.63000000e+00	2.67981639e-03	9.36996102e-05
1.63500000e+00	2.66677124e-03	9.32339993e-05
1.64000000e+00	2.67831781e-03	9.36581408e-05
1.64500000e+00	2.67249171e-03	9.44557735e-05
1.65000000e+00	2.66037922e-03	9.30462114e-05
1.65500000e+00	2.65066859e-03	9.25849463e-05
1.66000000e+00	2.63885818e-03	9.23170070e-05
1.66500000e+00	2.65171344e-03	9.42557436e-05
1.67000000e+00	2.64673674e-03	9.21894876e-05
1.67500000e+00	2.64409509e-03	9.22901015e-05
1.68000000e+00	2.62511844e-03	9.19217128e-05
1.68500000e+00	2.61836639e-03	9.33094640e-05
1.69000000e+00	2.60990101e-03	9.11478564e-05
1.69500000e+00	2.59650615e-03	9.05613828e-05
1.70000000e+00	2.59412638e-03	9.15064939e-05
1.70500000e+00	2.60444962e-03	9.22210349e-05
1.71000000e+00	2.58130181e-03	9.02978058e-05
1.71500000e+00	2.57732834e-03	9.00320507e-05
1.72000000e+00	2.58180250e-03	9.09392930e-05
1.72500000e+00	2.58684117e-03	9.15959502e-05
1.73000000e+00	2.57635305e-03	9.00034684e-05
1.73500000e+00	2.54233921e-03	8.91284801e-05
1.74000000e+00	2.54966369e-03	8.95562805e-05
1.74500000e+00	2.52585061e-03	8.99149404e-05
1.75000000e+00	2.54407616e-03	8.87098746e-05
1.75500000e+00	2.54001273e-03	8.91700242e-05
1.76000000e+00	2.51170893e-03	8.81400112e-05
1.76500000e+00	2.52297705e-03	8.95899176e-05
1.77000000e+00	2.51484247e-03	8.78723954e-05
1.77500000e+00	2.51149913e-03	8.80277858e-05
1.78000000e+00	2.51041938e-03	8.82708791e-05
1.78500000e+00	2.50091933e-03	8.88366821e-05
1.79000000e+00	2.48042271e-03	8.66135723e-05
1.79500000e+00	2.49049384e-03	8.71936832e-05
1.80000000e+00	2.48602849e-03	8.76693664e-05
1.80500000e+00	2.46424159e-03	8.74393608e-05
1.81000000e+00	2.45190599e-03	8.57081840e-05
1.81500000e+00	2.44051189e-03	8.53393079e-05
1.82000000e+00	2.44236502e-03	8.59761783e-05
1.82500000e+00	2.43941059e-03	8.64244965e-05
1.83000000e+00	2.43492749e-03	8.51885838e-05
1.83500000e+00	2.43263568e-03	8.51330410e-05
1.84000000e+00	2.41475467e-03	8.50928853e-05
1.84500000e+00	2.41171527e-03	8.54342392e-05
1.85000000e+00	2.40063318e-03	8.40904907e-05
1.85500000e+00	2.39740168e-03	8.39993956e-05
1.86000000e+00	2.35699204e-03	8.31373830e-05
1.86500000e+00	2.36500000e-03	8.36944024e-05
1.87000000e+00	2.37908251e-03	8.33266360e-05
1.87500000e+00	2.34739120e-03	8.23632440e-05
1.88000000e+00	2.37862587e-03	8.38693653e-05
1.88500000e+00	2.36619842e-03	8.39269704e-05
1.89000000e+00	2.34596299e-03	8.20776518e-05
1.89500000e+00	2.33524526e-03	8.20825877e-05
1.90000000e+00	2.36096917e-03	8.33030387e-05
1.90500000e+00	2.32967209e-03	8.22595228e-05
1.91000000e+00	2.33956812e-03	8.20418384e-05
1.91500000e+00	2.30266649e-03	8.06910188e-05
1.92000000e+00	2.29268388e-03	8.08737633e-05
1.92500000e+00	2.31374699e-03	8.16591414e-05
1.93000000e+00	2.30607854e-03	8.07243363e-05
1.93500000e+00	2.28171044e-03	8.01219904e-05
1.94000000e+00	2.26942704e-03	8.02262033e-05
1.94500000e+00	2.27526774e-03	8.02679347e-05
1.95000000e+00	2.29194449e-03	8.00649300e-05
1.95500000e+00	2.26134149e-03	7.94220513e-05
1.96000000e+00	2.26479812e-03	7.99908535e-05
1.96500000e+00	2.24917965e-03	7.94875629e-05
1.97000000e+00	2.24516283e-03	7.83858257e-05
1.97500000e+00	2.22560916e-03	7.82088723e-05
1.98000000e+00	2.23758756e-03	7.89315236e-05
1.98500000e+00	2.20447220e-03	7.80303972e-05
1.99000000e+00	2.19409101e-03	7.66237535e-05
1.99500000e+00	2.19778952e-03	7.71494273e-05
2.00000000e+00	2.18692909e-03	7.73108130e-05
2.00500000e+00	2.19504553e-03	7.77304715e-05
2.01000000e+00	2.18723759e-03	8.50662416e-05
2.01500000e+00	2.18951732e-03	9.03433594e-05
2.02000000e+00	2.15819963e-03	9.49559979e-05
2.02500000e+00	2.12394466e-03	9.71837313e-05
2.03000000e+00	2.11329373e-03	1.02353347e-04
2.03500000e+00	2.12064891e-03	1.07206455e-04
2.04000000e+00	2.07159657e-03	1.09454241e-04
2.04500000e+00	2.08578116e-03	1.15909416e-04
2.05000000e+00	2.07060419e-03	1.20861018e-04
2.05500000e+00	2.10426323e-03	1.20714935e-04
2.06000000e+00	2.11847713e-03	1.05422688e-04
2.06500000e+00	2.09189177e-03	9.96164101e-05
2.07000000e+00	2.10845815e-03	9.50150707e-05
2.07500000e+00	2.10311240e-03	9.27011822e-05
2.08000000e+00	2.09118840e-03	9.19933326e-05
2.08500000e+00	2.08241323e-03	9.06663823e-05
2.09000000e+00	2.08842329e-03	8.82725776e-05
2.09500000e+00	2.07130906e-03	8.65663471e-05
2.10000000e+00	2.06541489e-03	8.57027335e-05
2.10500000e+00	2.06267406e-03	8.53807415e-05
2.11000000e+00	2.05040762e-03	8.18078147e-05
2.11500000e+00	2.02115749e-03	7.98401976e-05
2.12000000e+00	1.99851657e-03	7.86009651e-05
2.12500000e+00	2.00069877e-03	7.83815621e-05
2.13000000e+00	2.00030150e-03	7.52132270e-05
2.13500000e+00	1.98392501e-03	7.37501410e-05
2.14000000e+00	1.95880107e-03	7.20901938e-05
2.14500000e+00	1.93772822e-03	7.14736930e-05
2.15000000e+00	1.93287576e-03	6.90085933e-05
2.15500000e+00	1.92728730e-03	6.88729907e-05
2.16000000e+00	1.91245072e-03	6.80758403e-05
2.16500000e+00	1.89686802e-03	6.80057449e-05
2.17000000e+00	1.90550957e-03	6.65286022e-05
2.17500000e+00	1.90109833e-03	6.65905845e-05
2.18000000e+00	1.87527597e-03	6.59033633e-05
2.18500000e+00	1.88608564e-03	6.65941769e-05
2.19000000e+00	1.88642949e-03	6.64099124e-05
2.19500000e+00	1.86132509e-03	6.52674590e-05
2.20000000e+00	1.86746296e-03	6.55836092e-05
2.20500000e+00	1.84454804e-03	6.49619447e-05
2.21000000e+00	1.84445494e-03	6.53678224e-05
2.21500000e+00	1.81634792e-03	6.36704628e-05
2.22000000e+00	1.81673442e-03	6.35871788e-05
2.22500000e+00	1.79744572e-03	6.33658029e-05
2.23000000e+00	1.78262102e-03	6.32596155e-05
2.23500000e+00	1.78172889e-03	6.24053978e-05
2.24000000e+00	1.77150330e-03	6.20436491e-05
2.24500000e+00	1.76281100e-03	6.20950553e-05
2.25000000e+00	1.76653479e-03	6.27636144e-05
2.25500000e+00	1.74293899e-03	6.08186408e-05
2.26000000e+00	1.71593929e-03	6.00832673e-05
2.26500000e+00	1.71863963e-03	6.04079882e-05
2.27000000e+00	1.69729110e-03	6.06341113e-05
2.27500000e+00	1.70647449e-03	5.96595479e-05
2.28000000e+00	1.69363800e-03	5.92073357e-05
2.28500000e+00	1.69446672e-03	5.95708049e-05
2.29000000e+00	1.66592490e-03	5.89537267e-05
2.29500000e+00	1.64996949e-03	5.82555753e-05
2.30000000e+00	1.64091797e-03	5.73965886e-05
2.30500000e+00	1.63440845e-03	5.73050946e-05
2.31000000e+00	1.63518946e-03	5.76054128e-05
2.31500000e+00	1.61634419e-03	5.74142513e-05
2.32000000e+00	1.60469834e-03	5.58592106e-05
2.32500000e+00	1.60105352e-03	5.61523755e-05
2.33000000e+00	1.57601892e-03	5.54369772e-05
2.33500000e+00	1.57506316e-03	5.59108856e-05
2.34000000e+00	1.55600634e-03	5.43537494e-05
2.34500000e+00	1.56577952e-03	5.46882185e-05
2.35000000e+00	1.55253242e-03	5.44663373e-05
2.35500000e+00	1.53935087e-03	5.46430269e-05
2.36000000e+00	1.52092885e-03	5.32607088e-05
2.36500000e+00	1.53153750e-03	5.36059300e-05
2.37000000e+00	1.49336463e-03	5.22372949e-05
2.37500000e+00	1.49707222e-03	5.28206286e-05
2.38000000e+00	1.48968486e-03	5.28288643e-05
2.38500000e+00	1.47538417e-03	5.16272783e-05
2.39000000e+00	1.46518228e-03	5.14438230e-05
2.39500000e+00	1.46877924e-03	5.17982498e-05
2.40000000e+00	1.45784922e-03	5.22016105e-05
2.40500000e+00	1.44021561e-03	5.04931633e-05
2.41000000e+00	1.44041551e-03	5.06997632e-05
2.41500000e+00	1.42883581e-03	5.03416181e-05
2.42000000e+00	1.42141076e-03	5.06577314e-05
2.42500000e+00	1.41163220e-03	5.02982231e-05
2.43000000e+00	1.38568028e-03	4.88894970e-05
2.43500000e+00	1.39756483e-03	4.95701370e-05
2.44000000e+00	1.39779893e-03	4.96241168e-05
2.44500000e+00	1.36743425e-03	4.91655460e-05
2.45000000e+00	1.38397720e-03	4.88595166e-05
2.45500000e+00	1.35027247e-03	4.78891295e-05
2.46000000e+00	1.35791007e-03	4.83516226e-05
2.46500000e+00	1.34036022e-03	4.83606467e-05
2.47000000e+00	1.33652423e-03	4.76944221e-05
2.47500000e+00	1.33416510e-03	4.72476002e-05
2.48000000e+00	1.32007172e-03	4.72639521e-05
2.48500000e+00	1.30671280e-03	4.67264562e-05
2.49000000e+00	1.32582014e-03	4.80557077e-05
2.49500000e+00	1.28818612e-03	4.57668248e-05
2.50000000e+00	1.26953981e-03	4.52235047e-05
2.50500000e+00	1.26788789e-03	4.53804726e-05
2.51000000e+00	1.27402028e-03	4.59974101e-05
2.51500000e+00	1.26038292e-03	4.56172984e-05
2.52000000e+00	1.27894890e-03	4.58364654e-05
2.52500000e+00	1.25224483e-03	4.50698033e-05
2.53000000e+00	1.23907683e-03	4.50353291e-05
2.53500000e+00	1.24240823e-03	4.56986913e-05
2.54000000e+00	1.23696725e-03	4.48185930e-05
2.54500000e+00	1.21955256e-03	4.42632343e-05
2.55000000e+00	1.22175850e-03	4.46178527e-05
2.55500000e+00	1.21241642e-03	4.46469082e-05
2.56000000e+00	1.19634783e-03	4.42912717e-05
2.56500000e+00	1.20478798e-03	4.42685380e-05
2.57000000e+00	1.19917540e-03	4.42061083e-05
2.57500000e+00	1.19279551e-03	4.40321615e-05
2.58000000e+00	1.17879031e-03	4.43549658e-05
2.58500000e+00	1.17455315e-03	4.37812955e-05
2.59000000e+00	1.16251832e-03	4.31431374e-05
2.59500000e+00	1.17182873e-03	4.37349877e-05
2.60000000e+00	1.16779524e-03	4.38519002e-05
2.60500000e+00	1.15767904e-03	4.44705910e-05
2.61000000e+00	1.14877572e-03	5.02262521e-05
2.61500000e+00	1.14884580e-03	5.55993929e-05
2.62000000e+00	1.13614916e-03	6.03911974e-05
2.62500000e+00	1.13968724e-03	6.56250934e-05
2.63000000e+00	1.13978964e-03	7.25685352e-05
2.63500000e+00	1.11968095e-03	7.91357302e-05
2.64000000e+00	1.16054448e-03	9.02619186e-05
2.64500000e+00	1.12179884e-03	9.34881083e-05
2.65000000e+00	1.10139591e-03	9.69998954e-05
2.65500000e+00	1.12266436e-03	1.05779884e-04
2.66000000e+00	1.11306217e-03	1.12797867e-04
2.66500000e+00	1.08153063e-03	1.22774810e-04
2.67000000e+00	1.07397248e-03	1.33231685e-04
2.67500000e+00	1.08864010e-03	1.57128553e-04
2.68000000e+00	1.03177231e-03	1.72962630e-04
2.68500000e+00	9.93199780e-04	2.18873391e-04
2.69000000e+00	1.12318013e-03	4.05011632e-04
2.69500000e+00	0.00000000e+00	0.00000000e+00
2.70000000e+00	0.00000000e+00	0.00000000e+00
