% Filename : WDL7_00012_00057.h5
% Date & Time : 30-Oct-2025 14:49:31
% X-ray Energy (keV) : 13.30001
% Exposure Time (s) : 0.500
% Photodiode Value : 136219.000
% I0 of Sample : 0
% I0 of Standard : 1
% 
% q(A^-1)   I(q)    I(q)_SE
8.40000000e-01	0.00000000e+00	0.00000000e+00
8.45000000e-01	2.76158789e-03	4.85699677e-04
8.50000000e-01	2.65700980e-03	2.46871263e-04
8.55000000e-01	2.63697714e-03	2.15555729e-04
8.60000000e-01	2.55197434e-03	1.80783422e-04
8.65000000e-01	2.59298025e-03	1.69144106e-04
8.70000000e-01	2.64728145e-03	1.64448129e-04
8.75000000e-01	2.63043596e-03	1.57407465e-04
8.80000000e-01	2.59520992e-03	1.50134484e-04
8.85000000e-01	2.62159767e-03	1.43457595e-04
8.90000000e-01	2.60696143e-03	1.39499089e-04
8.95000000e-01	2.64532668e-03	1.37558810e-04
9.00000000e-01	2.61460832e-03	1.34812300e-04
9.05000000e-01	2.65767435e-03	1.31050200e-04
9.10000000e-01	2.67461114e-03	1.29417997e-04
9.15000000e-01	2.65563575e-03	1.26366309e-04
9.20000000e-01	2.67994824e-03	1.27337930e-04
9.25000000e-01	2.71572015e-03	1.23574860e-04
9.30000000e-01	2.67192339e-03	1.20311619e-04
9.35000000e-01	2.68615867e-03	1.18633061e-04
9.40000000e-01	2.67547235e-03	1.18452426e-04
9.45000000e-01	2.70463013e-03	1.16752145e-04
9.50000000e-01	2.70764172e-03	1.15186580e-04
9.55000000e-01	2.70540566e-03	1.13102555e-04
9.60000000e-01	2.72871813e-03	1.14126042e-04
9.65000000e-01	2.71225829e-03	1.11618793e-04
9.70000000e-01	2.73352745e-03	1.10637318e-04
9.75000000e-01	2.73297041e-03	1.09330207e-04
9.80000000e-01	2.72685076e-03	1.08175495e-04
9.85000000e-01	2.73449110e-03	1.08626762e-04
9.90000000e-01	2.72840141e-03	1.05139455e-04
9.95000000e-01	2.75184960e-03	1.05423840e-04
1.00000000e+00	2.75555534e-03	1.05160184e-04
1.00500000e+00	2.70368098e-03	1.03141278e-04
1.01000000e+00	2.76043183e-03	1.03147841e-04
1.01500000e+00	2.73891676e-03	1.01352674e-04
1.02000000e+00	2.76118629e-03	1.02014896e-04
1.02500000e+00	2.74245700e-03	1.00137468e-04
1.03000000e+00	2.73405236e-03	9.95777402e-05
1.03500000e+00	2.73115152e-03	9.80759772e-05
1.04000000e+00	2.70457007e-03	9.65474543e-05
1.04500000e+00	2.71882476e-03	9.69432382e-05
1.05000000e+00	2.70832977e-03	9.60716196e-05
1.05500000e+00	2.72175499e-03	9.50247914e-05
1.06000000e+00	2.71034098e-03	9.44801123e-05
1.06500000e+00	2.72354262e-03	9.50140151e-05
1.07000000e+00	2.69679060e-03	9.40261038e-05
1.07500000e+00	2.72868510e-03	9.42694106e-05
1.08000000e+00	2.73335675e-03	9.39404508e-05
1.08500000e+00	2.72429997e-03	9.36104307e-05
1.09000000e+00	2.72946411e-03	9.44687507e-05
1.09500000e+00	2.72190742e-03	9.22822942e-05
1.10000000e+00	2.75963456e-03	9.41177519e-05
1.10500000e+00	2.76670292e-03	9.46889065e-05
1.11000000e+00	2.77662840e-03	9.50815304e-05
1.11500000e+00	2.78864525e-03	9.48705675e-05
1.12000000e+00	2.77936333e-03	9.48733227e-05
1.12500000e+00	2.79339404e-03	9.50569489e-05
1.13000000e+00	2.79205223e-03	9.62322672e-05
1.13500000e+00	2.79878971e-03	9.52479529e-05
1.14000000e+00	2.81364526e-03	9.55699269e-05
1.14500000e+00	2.83332115e-03	9.70202806e-05
1.15000000e+00	2.83693775e-03	9.76494644e-05
1.15500000e+00	2.83189305e-03	9.64702610e-05
1.16000000e+00	2.83509806e-03	9.68471023e-05
1.16500000e+00	2.83789179e-03	9.68662828e-05
1.17000000e+00	2.86388574e-03	9.90499648e-05
1.17500000e+00	2.87307936e-03	9.78154814e-05
1.18000000e+00	2.84857215e-03	9.76026062e-05
1.18500000e+00	2.85285552e-03	9.75449760e-05
1.19000000e+00	2.86532178e-03	9.90069997e-05
1.19500000e+00	2.84054353e-03	9.68775515e-05
1.20000000e+00	2.88088499e-03	9.88281440e-05
1.20500000e+00	2.86544572e-03	9.81526454e-05
1.21000000e+00	2.89071436e-03	1.00245211e-04
1.21500000e+00	2.90446514e-03	9.91339265e-05
1.22000000e+00	2.89259210e-03	9.88524031e-05
1.22500000e+00	2.88558967e-03	9.90129551e-05
1.23000000e+00	2.88771380e-03	9.98303154e-05
1.23500000e+00	2.90599884e-03	9.97637282e-05
1.24000000e+00	2.89238656e-03	9.88819500e-05
1.24500000e+00	2.90651979e-03	1.00092440e-04
1.25000000e+00	2.91529939e-03	1.00955386e-04
1.25500000e+00	2.91824878e-03	9.98575011e-05
1.26000000e+00	2.90310441e-03	9.99452053e-05
1.26500000e+00	2.92302995e-03	1.00276470e-04
1.27000000e+00	2.92407693e-03	1.01901408e-04
1.27500000e+00	2.89969821e-03	9.98974496e-05
1.28000000e+00	2.92570156e-03	1.00157769e-04
1.28500000e+00	2.90460847e-03	1.00017283e-04
1.29000000e+00	2.89569627e-03	1.00552826e-04
1.29500000e+00	2.91147374e-03	1.00113894e-04
1.30000000e+00	2.91934435e-03	1.00165320e-04
1.30500000e+00	2.88955517e-03	9.96194059e-05
1.31000000e+00	2.91378945e-03	1.01620199e-04
1.31500000e+00	2.90963531e-03	1.00235454e-04
1.32000000e+00	2.91802970e-03	1.00411757e-04
1.32500000e+00	2.94207556e-03	1.01490274e-04
1.33000000e+00	2.91191834e-03	1.01729995e-04
1.33500000e+00	2.92676687e-03	1.00732087e-04
1.34000000e+00	2.92083168e-03	1.00721432e-04
1.34500000e+00	2.89309689e-03	1.00124547e-04
1.35000000e+00	2.88371018e-03	1.00726216e-04
1.35500000e+00	2.93868151e-03	1.01281202e-04
1.36000000e+00	2.92790750e-03	1.00755107e-04
1.36500000e+00	2.90047869e-03	1.00090789e-04
1.37000000e+00	2.91439632e-03	1.02016834e-04
1.37500000e+00	2.91232251e-03	1.00439589e-04
1.38000000e+00	2.89854755e-03	1.00264676e-04
1.38500000e+00	2.91915905e-03	1.01499744e-04
1.39000000e+00	2.90440668e-03	1.01606224e-04
1.39500000e+00	2.90234606e-03	1.00039906e-04
1.40000000e+00	2.93327214e-03	1.04136793e-04
1.40500000e+00	2.91474553e-03	1.11467516e-04
1.41000000e+00	2.87003300e-03	1.14761624e-04
1.41500000e+00	2.85060574e-03	1.18219867e-04
1.42000000e+00	2.86006393e-03	1.23464273e-04
1.42500000e+00	2.82283706e-03	1.25466216e-04
1.43000000e+00	2.82100867e-03	1.30098225e-04
1.43500000e+00	2.80067290e-03	1.33109719e-04
1.44000000e+00	2.80242002e-03	1.38317488e-04
1.44500000e+00	2.78514029e-03	1.41206243e-04
1.45000000e+00	2.83581723e-03	1.39118119e-04
1.45500000e+00	2.89525917e-03	1.27406325e-04
1.46000000e+00	2.87027185e-03	1.23314444e-04
1.46500000e+00	2.85743720e-03	1.20593394e-04
1.47000000e+00	2.85396167e-03	1.20279564e-04
1.47500000e+00	2.86267520e-03	1.17106828e-04
1.48000000e+00	2.86726407e-03	1.15995599e-04
1.48500000e+00	2.83981140e-03	1.15069517e-04
1.49000000e+00	2.84108240e-03	1.15353433e-04
1.49500000e+00	2.88118678e-03	1.14242373e-04
1.50000000e+00	2.86236380e-03	1.13217661e-04
1.50500000e+00	2.83867891e-03	1.12901166e-04
1.51000000e+00	2.85604220e-03	1.13808819e-04
1.51500000e+00	2.85548193e-03	1.11838641e-04
1.52000000e+00	2.85690772e-03	1.11621118e-04
1.52500000e+00	2.87234311e-03	1.12065722e-04
1.53000000e+00	2.87700346e-03	1.12898822e-04
1.53500000e+00	2.86282588e-03	1.09214684e-04
1.54000000e+00	2.84058725e-03	1.08081948e-04
1.54500000e+00	2.83729313e-03	1.07758052e-04
1.55000000e+00	2.83961718e-03	1.07484235e-04
1.55500000e+00	2.84239366e-03	1.05262573e-04
1.56000000e+00	2.82616112e-03	1.04910291e-04
1.56500000e+00	2.80793429e-03	1.03583404e-04
1.57000000e+00	2.78991970e-03	1.02316022e-04
1.57500000e+00	2.77273664e-03	9.98172619e-05
1.58000000e+00	2.76332102e-03	9.92867690e-05
1.58500000e+00	2.77733054e-03	9.97595978e-05
1.59000000e+00	2.77126288e-03	9.96392326e-05
1.59500000e+00	2.74855344e-03	9.68594368e-05
1.60000000e+00	2.73613249e-03	9.64426494e-05
1.60500000e+00	2.74751343e-03	9.68591032e-05
1.61000000e+00	2.73236040e-03	9.60284201e-05
1.61500000e+00	2.72931076e-03	9.49374982e-05
1.62000000e+00	2.72770870e-03	9.53239655e-05
1.62500000e+00	2.69610573e-03	9.53230170e-05
1.63000000e+00	2.69406864e-03	9.42261035e-05
1.63500000e+00	2.70459726e-03	9.45602546e-05
1.64000000e+00	2.69698079e-03	9.43097196e-05
1.64500000e+00	2.71270743e-03	9.58611933e-05
1.65000000e+00	2.68770391e-03	9.40335740e-05
1.65500000e+00	2.66670020e-03	9.31941318e-05
1.66000000e+00	2.66420610e-03	9.31261370e-05
1.66500000e+00	2.67092954e-03	9.49647987e-05
1.67000000e+00	2.64981124e-03	9.23074500e-05
1.67500000e+00	2.65449395e-03	9.26858533e-05
1.68000000e+00	2.63385013e-03	9.23270052e-05
1.68500000e+00	2.65813875e-03	9.46760078e-05
1.69000000e+00	2.65876601e-03	9.28120042e-05
1.69500000e+00	2.64542484e-03	9.22164138e-05
1.70000000e+00	2.64241904e-03	9.31359098e-05
1.70500000e+00	2.62637421e-03	9.30435865e-05
1.71000000e+00	2.62817607e-03	9.18334962e-05
1.71500000e+00	2.60371003e-03	9.09761546e-05
1.72000000e+00	2.62028544e-03	9.23096328e-05
1.72500000e+00	2.58754424e-03	9.17085693e-05
1.73000000e+00	2.60848269e-03	9.11658361e-05
1.73500000e+00	2.57755145e-03	9.03405058e-05
1.74000000e+00	2.59607483e-03	9.12308752e-05
1.74500000e+00	2.56271290e-03	9.11092176e-05
1.75000000e+00	2.55148383e-03	8.90375272e-05
1.75500000e+00	2.57220416e-03	9.03194653e-05
1.76000000e+00	2.55307560e-03	8.96008585e-05
1.76500000e+00	2.56541033e-03	9.11137620e-05
1.77000000e+00	2.55496172e-03	8.92869045e-05
1.77500000e+00	2.53122717e-03	8.87042272e-05
1.78000000e+00	2.52215637e-03	8.85975214e-05
1.78500000e+00	2.49561633e-03	8.87304720e-05
1.79000000e+00	2.52439079e-03	8.81251637e-05
1.79500000e+00	2.51095075e-03	8.79308528e-05
1.80000000e+00	2.50153783e-03	8.81962757e-05
1.80500000e+00	2.50145260e-03	8.87721158e-05
1.81000000e+00	2.49028807e-03	8.70507608e-05
1.81500000e+00	2.49531282e-03	8.73037603e-05
1.82000000e+00	2.47092588e-03	8.69615713e-05
1.82500000e+00	2.46958534e-03	8.74815376e-05
1.83000000e+00	2.46679630e-03	8.62594374e-05
1.83500000e+00	2.45769897e-03	8.61667995e-05
1.84000000e+00	2.46360661e-03	8.68240875e-05
1.84500000e+00	2.43864107e-03	8.63973277e-05
1.85000000e+00	2.44367720e-03	8.55942148e-05
1.85500000e+00	2.40843321e-03	8.44755072e-05
1.86000000e+00	2.38445150e-03	8.40932320e-05
1.86500000e+00	2.41871208e-03	8.55576811e-05
1.87000000e+00	2.40506617e-03	8.41217206e-05
1.87500000e+00	2.39853286e-03	8.41431935e-05
1.88000000e+00	2.39172449e-03	8.43454811e-05
1.88500000e+00	2.38873534e-03	8.47547598e-05
1.89000000e+00	2.37214505e-03	8.29420646e-05
1.89500000e+00	2.36233649e-03	8.30250127e-05
1.90000000e+00	2.38257979e-03	8.40151650e-05
1.90500000e+00	2.35460268e-03	8.30754539e-05
1.91000000e+00	2.35260710e-03	8.24481822e-05
1.91500000e+00	2.33179982e-03	8.18133681e-05
1.92000000e+00	2.32450712e-03	8.19928709e-05
1.92500000e+00	2.31739000e-03	8.17700855e-05
1.93000000e+00	2.30073540e-03	8.04987809e-05
1.93500000e+00	2.33539578e-03	8.19896508e-05
1.94000000e+00	2.29788892e-03	8.12808480e-05
1.94500000e+00	2.31391669e-03	8.16437823e-05
1.95000000e+00	2.29764267e-03	8.03486502e-05
1.95500000e+00	2.27822000e-03	7.99875498e-05
1.96000000e+00	2.29244328e-03	8.10054310e-05
1.96500000e+00	2.27315433e-03	8.02812232e-05
1.97000000e+00	2.27735013e-03	7.94953998e-05
1.97500000e+00	2.27146031e-03	7.98091129e-05
1.98000000e+00	2.23030569e-03	7.87563781e-05
1.98500000e+00	2.23217543e-03	7.90555499e-05
1.99000000e+00	2.23649379e-03	7.80672156e-05
1.99500000e+00	2.24068521e-03	7.85708511e-05
2.00000000e+00	2.22950351e-03	7.88054513e-05
2.00500000e+00	2.25733985e-03	7.98697283e-05
2.01000000e+00	2.21692538e-03	8.61391276e-05
2.01500000e+00	2.18889645e-03	9.03290404e-05
2.02000000e+00	2.16685283e-03	9.53727706e-05
2.02500000e+00	2.15481177e-03	9.85589475e-05
2.03000000e+00	2.13635194e-03	1.03540701e-04
2.03500000e+00	2.13824011e-03	1.08136262e-04
2.04000000e+00	2.10875296e-03	1.11393435e-04
2.04500000e+00	2.10105542e-03	1.16741443e-04
2.05000000e+00	2.08155102e-03	1.21463188e-04
2.05500000e+00	2.13793905e-03	1.22327382e-04
2.06000000e+00	2.14237869e-03	1.06697848e-04
2.06500000e+00	2.12111984e-03	1.00933751e-04
2.07000000e+00	2.09978489e-03	9.45796682e-05
2.07500000e+00	2.09628851e-03	9.24177022e-05
2.08000000e+00	2.10264154e-03	9.23554630e-05
2.08500000e+00	2.12313556e-03	9.25550017e-05
2.09000000e+00	2.09205232e-03	8.83689803e-05
2.09500000e+00	2.10258204e-03	8.78885596e-05
2.10000000e+00	2.10163834e-03	8.72855281e-05
2.10500000e+00	2.07127032e-03	8.57482800e-05
2.11000000e+00	2.08064470e-03	8.29868813e-05
2.11500000e+00	2.07388050e-03	8.18796390e-05
2.12000000e+00	2.06211428e-03	8.10140338e-05
2.12500000e+00	2.00577682e-03	7.86459849e-05
2.13000000e+00	2.01627766e-03	7.57667563e-05
2.13500000e+00	2.01157896e-03	7.46393315e-05
2.14000000e+00	2.00043532e-03	7.35435769e-05
2.14500000e+00	1.98388479e-03	7.31711663e-05
2.15000000e+00	1.98308746e-03	7.07990524e-05
2.15500000e+00	1.96377166e-03	7.02027299e-05
2.16000000e+00	1.94409011e-03	6.91930552e-05
2.16500000e+00	1.95234839e-03	6.98898833e-05
2.17000000e+00	1.93808955e-03	6.77957038e-05
2.17500000e+00	1.90942317e-03	6.69384721e-05
2.18000000e+00	1.91355216e-03	6.73551634e-05
2.18500000e+00	1.90508815e-03	6.73710202e-05
2.19000000e+00	1.91884776e-03	6.76120440e-05
2.19500000e+00	1.88905778e-03	6.61744447e-05
2.20000000e+00	1.86429893e-03	6.54393000e-05
2.20500000e+00	1.87442521e-03	6.60583122e-05
2.21000000e+00	1.86376779e-03	6.59959042e-05
2.21500000e+00	1.84246894e-03	6.45203733e-05
2.22000000e+00	1.85191804e-03	6.48102275e-05
2.22500000e+00	1.81716010e-03	6.40922682e-05
2.23000000e+00	1.78449723e-03	6.33071725e-05
2.23500000e+00	1.80082096e-03	6.29521304e-05
2.24000000e+00	1.79071940e-03	6.27990013e-05
2.24500000e+00	1.78359699e-03	6.28803030e-05
2.25000000e+00	1.74937916e-03	6.22631901e-05
2.25500000e+00	1.76806042e-03	6.17737659e-05
2.26000000e+00	1.74584026e-03	6.12054752e-05
2.26500000e+00	1.73253642e-03	6.09903635e-05
2.27000000e+00	1.72404002e-03	6.14452032e-05
2.27500000e+00	1.70465132e-03	5.95845322e-05
2.28000000e+00	1.70513077e-03	5.96016429e-05
2.28500000e+00	1.68757907e-03	5.93887268e-05
2.29000000e+00	1.68555234e-03	5.96705423e-05
2.29500000e+00	1.65421634e-03	5.83359016e-05
2.30000000e+00	1.63970266e-03	5.73381689e-05
2.30500000e+00	1.64252035e-03	5.75536814e-05
2.31000000e+00	1.64041312e-03	5.77953714e-05
2.31500000e+00	1.62054389e-03	5.75778645e-05
2.32000000e+00	1.62340533e-03	5.65215124e-05
2.32500000e+00	1.59869135e-03	5.60865241e-05
2.33000000e+00	1.59053760e-03	5.58902691e-05
2.33500000e+00	1.57336762e-03	5.58722077e-05
2.34000000e+00	1.57456686e-03	5.50114838e-05
2.34500000e+00	1.56188426e-03	5.45590111e-05
2.35000000e+00	1.55896578e-03	5.46728345e-05
2.35500000e+00	1.54530486e-03	5.49104563e-05
2.36000000e+00	1.53748832e-03	5.38517820e-05
2.36500000e+00	1.52197442e-03	5.32563801e-05
2.37000000e+00	1.51169543e-03	5.29216047e-05
2.37500000e+00	1.51459558e-03	5.35247897e-05
2.38000000e+00	1.47343421e-03	5.23979865e-05
2.38500000e+00	1.48382721e-03	5.18943433e-05
2.39000000e+00	1.47826696e-03	5.18360599e-05
2.39500000e+00	1.46731611e-03	5.18108311e-05
2.40000000e+00	1.46052843e-03	5.22055728e-05
2.40500000e+00	1.45018552e-03	5.08637578e-05
2.41000000e+00	1.43594233e-03	5.05815102e-05
2.41500000e+00	1.43652524e-03	5.06101721e-05
2.42000000e+00	1.42916006e-03	5.09543358e-05
2.42500000e+00	1.40818952e-03	5.01547259e-05
2.43000000e+00	1.41047443e-03	4.97147197e-05
2.43500000e+00	1.41103555e-03	5.00189765e-05
2.44000000e+00	1.38615452e-03	4.92409443e-05
2.44500000e+00	1.38825370e-03	4.98785342e-05
2.45000000e+00	1.37079777e-03	4.84100725e-05
2.45500000e+00	1.36505709e-03	4.83870134e-05
2.46000000e+00	1.35597126e-03	4.82477239e-05
2.46500000e+00	1.35080072e-03	4.85460076e-05
2.47000000e+00	1.34584597e-03	4.79940329e-05
2.47500000e+00	1.33151930e-03	4.71680908e-05
2.48000000e+00	1.33349270e-03	4.77022847e-05
2.48500000e+00	1.31627918e-03	4.70122468e-05
2.49000000e+00	1.29158018e-03	4.67878039e-05
2.49500000e+00	1.30677277e-03	4.64898838e-05
2.50000000e+00	1.29095048e-03	4.59255900e-05
2.50500000e+00	1.28704667e-03	4.60984186e-05
2.51000000e+00	1.27020870e-03	4.58364576e-05
2.51500000e+00	1.28794821e-03	4.65487947e-05
2.52000000e+00	1.25739117e-03	4.50516713e-05
2.52500000e+00	1.25761575e-03	4.53135080e-05
2.53000000e+00	1.23772600e-03	4.49382822e-05
2.53500000e+00	1.24673429e-03	4.59473077e-05
2.54000000e+00	1.23434366e-03	4.47191560e-05
2.54500000e+00	1.22962879e-03	4.46529758e-05
2.55000000e+00	1.21379472e-03	4.42884690e-05
2.55500000e+00	1.20872913e-03	4.44861977e-05
2.56000000e+00	1.20679799e-03	4.46390082e-05
2.56500000e+00	1.18773951e-03	4.36144712e-05
2.57000000e+00	1.20198747e-03	4.42458447e-05
2.57500000e+00	1.18192774e-03	4.36823749e-05
2.58000000e+00	1.17866146e-03	4.42693441e-05
2.58500000e+00	1.17099479e-03	4.35942241e-05
2.59000000e+00	1.16197294e-03	4.31595849e-05
2.59500000e+00	1.15189613e-03	4.29071379e-05
2.60000000e+00	1.16974024e-03	4.38900004e-05
2.60500000e+00	1.16564369e-03	4.46980172e-05
2.61000000e+00	1.15191124e-03	5.03242944e-05
2.61500000e+00	1.15035191e-03	5.55243102e-05
2.62000000e+00	1.12796890e-03	5.99184364e-05
2.62500000e+00	1.13069028e-03	6.50084320e-05
2.63000000e+00	1.11432801e-03	7.10267502e-05
2.63500000e+00	1.11343531e-03	7.85503812e-05
2.64000000e+00	1.13480533e-03	8.85830814e-05
2.64500000e+00	1.10195390e-03	9.14535354e-05
2.65000000e+00	1.11002954e-03	9.76878178e-05
2.65500000e+00	1.07890952e-03	1.02070789e-04
2.66000000e+00	1.09168820e-03	1.10477915e-04
2.66500000e+00	1.08373212e-03	1.23316510e-04
2.67000000e+00	1.06370580e-03	1.31752898e-04
2.67500000e+00	1.09430760e-03	1.58266126e-04
2.68000000e+00	1.08611137e-03	1.82071965e-04
2.68500000e+00	1.12001997e-03	2.48112304e-04
2.69000000e+00	1.22227901e-03	4.36892062e-04
2.69500000e+00	0.00000000e+00	0.00000000e+00
2.70000000e+00	0.00000000e+00	0.00000000e+00
