% Filename : WDL7_00012_00174.h5
% Date & Time : 30-Oct-2025 14:56:35
% X-ray Energy (keV) : 13.30001
% Exposure Time (s) : 0.500
% Photodiode Value : 136172.000
% I0 of Sample : 0
% I0 of Standard : 1
% 
% q(A^-1)   I(q)    I(q)_SE
8.40000000e-01	0.00000000e+00	0.00000000e+00
8.45000000e-01	2.78758657e-03	4.89234932e-04
8.50000000e-01	2.65232355e-03	2.46086316e-04
8.55000000e-01	2.57970724e-03	2.10716079e-04
8.60000000e-01	2.58457415e-03	1.82881546e-04
8.65000000e-01	2.59906563e-03	1.69501130e-04
8.70000000e-01	2.57928200e-03	1.60172650e-04
8.75000000e-01	2.56485434e-03	1.53258202e-04
8.80000000e-01	2.57245345e-03	1.48722553e-04
8.85000000e-01	2.61220473e-03	1.42775511e-04
8.90000000e-01	2.62789761e-03	1.40643700e-04
8.95000000e-01	2.62591543e-03	1.36534876e-04
9.00000000e-01	2.63677380e-03	1.35787780e-04
9.05000000e-01	2.63532081e-03	1.29945482e-04
9.10000000e-01	2.62598730e-03	1.27050166e-04
9.15000000e-01	2.63146739e-03	1.25306452e-04
9.20000000e-01	2.64545166e-03	1.25701940e-04
9.25000000e-01	2.66475577e-03	1.21210095e-04
9.30000000e-01	2.63794694e-03	1.18834684e-04
9.35000000e-01	2.66140254e-03	1.17470063e-04
9.40000000e-01	2.69239184e-03	1.19205117e-04
9.45000000e-01	2.66726567e-03	1.15110186e-04
9.50000000e-01	2.67626579e-03	1.13882950e-04
9.55000000e-01	2.67752057e-03	1.11937587e-04
9.60000000e-01	2.69917963e-03	1.13008666e-04
9.65000000e-01	2.68527364e-03	1.10522303e-04
9.70000000e-01	2.68407517e-03	1.08595810e-04
9.75000000e-01	2.68853026e-03	1.07543005e-04
9.80000000e-01	2.67364150e-03	1.06061399e-04
9.85000000e-01	2.72497472e-03	1.08248567e-04
9.90000000e-01	2.70760500e-03	1.04334971e-04
9.95000000e-01	2.72310633e-03	1.04325063e-04
1.00000000e+00	2.71566960e-03	1.03579472e-04
1.00500000e+00	2.73065489e-03	1.04102967e-04
1.01000000e+00	2.72723769e-03	1.01860036e-04
1.01500000e+00	2.71071149e-03	1.00297782e-04
1.02000000e+00	2.71452523e-03	1.00462764e-04
1.02500000e+00	2.69931113e-03	9.85260962e-05
1.03000000e+00	2.69829838e-03	9.81337909e-05
1.03500000e+00	2.69776369e-03	9.68372412e-05
1.04000000e+00	2.68162690e-03	9.56186580e-05
1.04500000e+00	2.66821989e-03	9.52589855e-05
1.05000000e+00	2.67925120e-03	9.50696282e-05
1.05500000e+00	2.67146727e-03	9.32868670e-05
1.06000000e+00	2.66774588e-03	9.28874087e-05
1.06500000e+00	2.69516727e-03	9.38854757e-05
1.07000000e+00	2.69635370e-03	9.38798674e-05
1.07500000e+00	2.70067647e-03	9.33479301e-05
1.08000000e+00	2.71397579e-03	9.31877129e-05
1.08500000e+00	2.72173198e-03	9.35339329e-05
1.09000000e+00	2.71800876e-03	9.39029408e-05
1.09500000e+00	2.70622853e-03	9.16183078e-05
1.10000000e+00	2.74880328e-03	9.36274363e-05
1.10500000e+00	2.76131761e-03	9.43789232e-05
1.11000000e+00	2.73928632e-03	9.38036789e-05
1.11500000e+00	2.74467393e-03	9.32516656e-05
1.12000000e+00	2.77186278e-03	9.46137298e-05
1.12500000e+00	2.76641627e-03	9.42396507e-05
1.13000000e+00	2.76123461e-03	9.51929457e-05
1.13500000e+00	2.78537858e-03	9.47093266e-05
1.14000000e+00	2.80556106e-03	9.53475138e-05
1.14500000e+00	2.80623606e-03	9.61484225e-05
1.15000000e+00	2.80344362e-03	9.65821253e-05
1.15500000e+00	2.81506675e-03	9.59676146e-05
1.16000000e+00	2.81376238e-03	9.61976784e-05
1.16500000e+00	2.82492562e-03	9.62747737e-05
1.17000000e+00	2.82052093e-03	9.74951678e-05
1.17500000e+00	2.82972141e-03	9.64231283e-05
1.18000000e+00	2.81946796e-03	9.64470264e-05
1.18500000e+00	2.85186508e-03	9.73630017e-05
1.19000000e+00	2.82443038e-03	9.75404074e-05
1.19500000e+00	2.84600783e-03	9.70488493e-05
1.20000000e+00	2.85473366e-03	9.80309720e-05
1.20500000e+00	2.84753821e-03	9.74758759e-05
1.21000000e+00	2.84809336e-03	9.86890038e-05
1.21500000e+00	2.86566799e-03	9.78644064e-05
1.22000000e+00	2.87851149e-03	9.84228190e-05
1.22500000e+00	2.86662270e-03	9.83219892e-05
1.23000000e+00	2.84526974e-03	9.84292288e-05
1.23500000e+00	2.89050996e-03	9.93160577e-05
1.24000000e+00	2.89974307e-03	9.91201627e-05
1.24500000e+00	2.90724271e-03	1.00157956e-04
1.25000000e+00	2.86396615e-03	9.92726165e-05
1.25500000e+00	2.88369637e-03	9.86543941e-05
1.26000000e+00	2.89731114e-03	9.97746329e-05
1.26500000e+00	2.87823624e-03	9.87396079e-05
1.27000000e+00	2.89530260e-03	1.00821544e-04
1.27500000e+00	2.88292803e-03	9.93095594e-05
1.28000000e+00	2.88157180e-03	9.86878308e-05
1.28500000e+00	2.87921961e-03	9.91542740e-05
1.29000000e+00	2.89205672e-03	1.00463004e-04
1.29500000e+00	2.87238368e-03	9.87689866e-05
1.30000000e+00	2.89279422e-03	9.92183523e-05
1.30500000e+00	2.89477460e-03	9.97896700e-05
1.31000000e+00	2.89571859e-03	1.01038723e-04
1.31500000e+00	2.89831847e-03	9.98166441e-05
1.32000000e+00	2.89298548e-03	9.94822303e-05
1.32500000e+00	2.90119705e-03	1.00085730e-04
1.33000000e+00	2.90049239e-03	1.01244847e-04
1.33500000e+00	2.88109921e-03	9.92497728e-05
1.34000000e+00	2.88009855e-03	9.93267110e-05
1.34500000e+00	2.88712493e-03	9.99175701e-05
1.35000000e+00	2.85970359e-03	9.99329471e-05
1.35500000e+00	2.90935059e-03	1.00192302e-04
1.36000000e+00	2.90772954e-03	1.00035401e-04
1.36500000e+00	2.88631261e-03	9.96631770e-05
1.37000000e+00	2.88307860e-03	1.00982025e-04
1.37500000e+00	2.88523165e-03	9.95738718e-05
1.38000000e+00	2.89755602e-03	1.00143204e-04
1.38500000e+00	2.87522372e-03	9.99615536e-05
1.39000000e+00	2.89172524e-03	1.01143522e-04
1.39500000e+00	2.87547655e-03	9.91665257e-05
1.40000000e+00	2.89372280e-03	1.02790670e-04
1.40500000e+00	2.87853992e-03	1.10048068e-04
1.41000000e+00	2.85557605e-03	1.14280594e-04
1.41500000e+00	2.82589173e-03	1.17317136e-04
1.42000000e+00	2.81760934e-03	1.21673895e-04
1.42500000e+00	2.83426352e-03	1.25759573e-04
1.43000000e+00	2.80424971e-03	1.29174094e-04
1.43500000e+00	2.78485713e-03	1.32486864e-04
1.44000000e+00	2.79818993e-03	1.38129286e-04
1.44500000e+00	2.75375662e-03	1.39374411e-04
1.45000000e+00	2.81304232e-03	1.37860370e-04
1.45500000e+00	2.84555886e-03	1.25017886e-04
1.46000000e+00	2.83631029e-03	1.21742528e-04
1.46500000e+00	2.83675038e-03	1.19683552e-04
1.47000000e+00	2.85628932e-03	1.20275894e-04
1.47500000e+00	2.86123762e-03	1.17052816e-04
1.48000000e+00	2.83099158e-03	1.14459346e-04
1.48500000e+00	2.85120766e-03	1.15423762e-04
1.49000000e+00	2.82642931e-03	1.14779198e-04
1.49500000e+00	2.83460950e-03	1.12374220e-04
1.50000000e+00	2.82677462e-03	1.11720066e-04
1.50500000e+00	2.83999687e-03	1.12862225e-04
1.51000000e+00	2.83105290e-03	1.12820223e-04
1.51500000e+00	2.83345701e-03	1.11018326e-04
1.52000000e+00	2.85345106e-03	1.11449485e-04
1.52500000e+00	2.84075144e-03	1.10746273e-04
1.53000000e+00	2.84651091e-03	1.11641621e-04
1.53500000e+00	2.83132488e-03	1.07960452e-04
1.54000000e+00	2.83074750e-03	1.07813588e-04
1.54500000e+00	2.82612304e-03	1.07392600e-04
1.55000000e+00	2.82238118e-03	1.06897762e-04
1.55500000e+00	2.81511942e-03	1.04222252e-04
1.56000000e+00	2.80408372e-03	1.04129844e-04
1.56500000e+00	2.79144898e-03	1.03067323e-04
1.57000000e+00	2.78613266e-03	1.02298660e-04
1.57500000e+00	2.73258585e-03	9.83471300e-05
1.58000000e+00	2.72930952e-03	9.80984513e-05
1.58500000e+00	2.73312276e-03	9.82392094e-05
1.59000000e+00	2.72882624e-03	9.81420219e-05
1.59500000e+00	2.72563927e-03	9.61070073e-05
1.60000000e+00	2.71745125e-03	9.57930741e-05
1.60500000e+00	2.72102457e-03	9.59731170e-05
1.61000000e+00	2.71590552e-03	9.53325592e-05
1.61500000e+00	2.71971374e-03	9.46954350e-05
1.62000000e+00	2.70747457e-03	9.46234165e-05
1.62500000e+00	2.70279630e-03	9.55636280e-05
1.63000000e+00	2.68644903e-03	9.39530367e-05
1.63500000e+00	2.68565545e-03	9.38674108e-05
1.64000000e+00	2.67182917e-03	9.34607799e-05
1.64500000e+00	2.67677434e-03	9.47072947e-05
1.65000000e+00	2.68579704e-03	9.39527222e-05
1.65500000e+00	2.66780409e-03	9.32185920e-05
1.66000000e+00	2.62920242e-03	9.19499445e-05
1.66500000e+00	2.65733781e-03	9.45433780e-05
1.67000000e+00	2.64013437e-03	9.19867135e-05
1.67500000e+00	2.62657145e-03	9.16650658e-05
1.68000000e+00	2.63753367e-03	9.24081498e-05
1.68500000e+00	2.62579553e-03	9.34980622e-05
1.69000000e+00	2.61837470e-03	9.14330316e-05
1.69500000e+00	2.59024899e-03	9.03012333e-05
1.70000000e+00	2.60675489e-03	9.19531068e-05
1.70500000e+00	2.59028984e-03	9.16718782e-05
1.71000000e+00	2.58873392e-03	9.04914202e-05
1.71500000e+00	2.57267949e-03	8.99295296e-05
1.72000000e+00	2.58672390e-03	9.11670822e-05
1.72500000e+00	2.58639763e-03	9.16141137e-05
1.73000000e+00	2.57610401e-03	9.01215917e-05
1.73500000e+00	2.56228182e-03	8.98716963e-05
1.74000000e+00	2.53962183e-03	8.92508687e-05
1.74500000e+00	2.56055322e-03	9.10425962e-05
1.75000000e+00	2.53596672e-03	8.84427002e-05
1.75500000e+00	2.53099625e-03	8.88739584e-05
1.76000000e+00	2.50770571e-03	8.80229788e-05
1.76500000e+00	2.51263908e-03	8.93263385e-05
1.77000000e+00	2.52392652e-03	8.82035936e-05
1.77500000e+00	2.49664352e-03	8.75654587e-05
1.78000000e+00	2.51092218e-03	8.82320840e-05
1.78500000e+00	2.48463457e-03	8.82499277e-05
1.79000000e+00	2.50018275e-03	8.73644424e-05
1.79500000e+00	2.48809382e-03	8.71773833e-05
1.80000000e+00	2.48170161e-03	8.74325122e-05
1.80500000e+00	2.46987667e-03	8.75962344e-05
1.81000000e+00	2.47119224e-03	8.63962350e-05
1.81500000e+00	2.45599187e-03	8.58150796e-05
1.82000000e+00	2.46893015e-03	8.68617435e-05
1.82500000e+00	2.44714521e-03	8.67159404e-05
1.83000000e+00	2.44727026e-03	8.56242179e-05
1.83500000e+00	2.43253514e-03	8.52357889e-05
1.84000000e+00	2.45604431e-03	8.65314390e-05
1.84500000e+00	2.42096412e-03	8.57750270e-05
1.85000000e+00	2.37872959e-03	8.34021734e-05
1.85500000e+00	2.41116402e-03	8.44870915e-05
1.86000000e+00	2.40007760e-03	8.46985595e-05
1.86500000e+00	2.39776590e-03	8.47760032e-05
1.87000000e+00	2.39901614e-03	8.39673364e-05
1.87500000e+00	2.37710542e-03	8.34230227e-05
1.88000000e+00	2.37526701e-03	8.37418306e-05
1.88500000e+00	2.35925292e-03	8.37071981e-05
1.89000000e+00	2.34597909e-03	8.20541540e-05
1.89500000e+00	2.33324292e-03	8.20861631e-05
1.90000000e+00	2.33598021e-03	8.23347713e-05
1.90500000e+00	2.34334967e-03	8.26850913e-05
1.91000000e+00	2.33459402e-03	8.18451516e-05
1.91500000e+00	2.34133194e-03	8.20589133e-05
1.92000000e+00	2.32874533e-03	8.21141248e-05
1.92500000e+00	2.32605251e-03	8.20526338e-05
1.93000000e+00	2.30830239e-03	8.08151473e-05
1.93500000e+00	2.29431121e-03	8.04888542e-05
1.94000000e+00	2.31529710e-03	8.19478191e-05
1.94500000e+00	2.27276483e-03	8.01232801e-05
1.95000000e+00	2.26407097e-03	7.92148352e-05
1.95500000e+00	2.26220461e-03	7.94325573e-05
1.96000000e+00	2.25182917e-03	7.95737090e-05
1.96500000e+00	2.24632134e-03	7.94237589e-05
1.97000000e+00	2.22449625e-03	7.77003789e-05
1.97500000e+00	2.23136795e-03	7.84495843e-05
1.98000000e+00	2.22574031e-03	7.86373308e-05
1.98500000e+00	2.23183806e-03	7.89423020e-05
1.99000000e+00	2.20127721e-03	7.68898847e-05
1.99500000e+00	2.22977680e-03	7.82862472e-05
2.00000000e+00	2.21769887e-03	7.83279476e-05
2.00500000e+00	2.22009685e-03	7.85852095e-05
2.01000000e+00	2.20001688e-03	8.54833234e-05
2.01500000e+00	2.18662837e-03	9.02764526e-05
2.02000000e+00	2.15918369e-03	9.50251123e-05
2.02500000e+00	2.16633340e-03	9.89639797e-05
2.03000000e+00	2.13929762e-03	1.03628593e-04
2.03500000e+00	2.11127231e-03	1.06901900e-04
2.04000000e+00	2.12524093e-03	1.12459976e-04
2.04500000e+00	2.06730204e-03	1.14986527e-04
2.05000000e+00	2.09307666e-03	1.22176793e-04
2.05500000e+00	2.10593961e-03	1.20611603e-04
2.06000000e+00	2.11698446e-03	1.05489691e-04
2.06500000e+00	2.08825889e-03	9.93341329e-05
2.07000000e+00	2.11905455e-03	9.53662960e-05
2.07500000e+00	2.09594945e-03	9.24031658e-05
2.08000000e+00	2.11563587e-03	9.30118460e-05
2.08500000e+00	2.10823872e-03	9.17921356e-05
2.09000000e+00	2.09333978e-03	8.85012939e-05
2.09500000e+00	2.08183344e-03	8.69688599e-05
2.10000000e+00	2.07434523e-03	8.62264689e-05
2.10500000e+00	2.05982232e-03	8.52821244e-05
2.11000000e+00	2.04722442e-03	8.15819080e-05
2.11500000e+00	2.04597075e-03	8.07957751e-05
2.12000000e+00	2.03208225e-03	7.98294063e-05
2.12500000e+00	2.00817334e-03	7.87002464e-05
2.13000000e+00	1.99703749e-03	7.50196117e-05
2.13500000e+00	1.96881711e-03	7.31538704e-05
2.14000000e+00	1.96907703e-03	7.24684829e-05
2.14500000e+00	1.93517194e-03	7.13713520e-05
2.15000000e+00	1.96270608e-03	7.00503669e-05
2.15500000e+00	1.92829179e-03	6.90097191e-05
2.16000000e+00	1.92361250e-03	6.83733341e-05
2.16500000e+00	1.91463173e-03	6.86305469e-05
2.17000000e+00	1.91475069e-03	6.69160734e-05
2.17500000e+00	1.89885549e-03	6.65700053e-05
2.18000000e+00	1.90126020e-03	6.68607289e-05
2.18500000e+00	1.89634694e-03	6.70323402e-05
2.19000000e+00	1.89839865e-03	6.68528910e-05
2.19500000e+00	1.86195631e-03	6.51837237e-05
2.20000000e+00	1.85095025e-03	6.49191260e-05
2.20500000e+00	1.84307145e-03	6.49429733e-05
2.21000000e+00	1.83983844e-03	6.51167687e-05
2.21500000e+00	1.82566969e-03	6.39014247e-05
2.22000000e+00	1.79324009e-03	6.26927124e-05
2.22500000e+00	1.81457121e-03	6.40616884e-05
2.23000000e+00	1.79035218e-03	6.35058804e-05
2.23500000e+00	1.78903419e-03	6.26530939e-05
2.24000000e+00	1.76582767e-03	6.18153352e-05
2.24500000e+00	1.78064680e-03	6.27634768e-05
2.25000000e+00	1.73630320e-03	6.17079650e-05
2.25500000e+00	1.74374181e-03	6.08484450e-05
2.26000000e+00	1.72125816e-03	6.03355525e-05
2.26500000e+00	1.71211271e-03	6.01893062e-05
2.27000000e+00	1.72022881e-03	6.13618506e-05
2.27500000e+00	1.70168367e-03	5.95020932e-05
2.28000000e+00	1.69279949e-03	5.91425861e-05
2.28500000e+00	1.68149470e-03	5.91387482e-05
2.29000000e+00	1.67280412e-03	5.91889361e-05
2.29500000e+00	1.66475875e-03	5.86553555e-05
2.30000000e+00	1.63331865e-03	5.70736773e-05
2.30500000e+00	1.64031283e-03	5.75061606e-05
2.31000000e+00	1.64730868e-03	5.80104165e-05
2.31500000e+00	1.60560771e-03	5.70174798e-05
2.32000000e+00	1.61231502e-03	5.61177356e-05
2.32500000e+00	1.58792281e-03	5.57652808e-05
2.33000000e+00	1.57154269e-03	5.52362040e-05
2.33500000e+00	1.56985849e-03	5.57150607e-05
2.34000000e+00	1.56396163e-03	5.46317464e-05
2.34500000e+00	1.54435592e-03	5.39119026e-05
2.35000000e+00	1.54903765e-03	5.42806280e-05
2.35500000e+00	1.53399404e-03	5.45318297e-05
2.36000000e+00	1.52943354e-03	5.36167534e-05
2.36500000e+00	1.50297901e-03	5.26894394e-05
2.37000000e+00	1.50598033e-03	5.27613407e-05
2.37500000e+00	1.49744205e-03	5.28375524e-05
2.38000000e+00	1.49851734e-03	5.31834898e-05
2.38500000e+00	1.48082653e-03	5.18208056e-05
2.39000000e+00	1.48201695e-03	5.20103796e-05
2.39500000e+00	1.46731397e-03	5.17843432e-05
2.40000000e+00	1.45804875e-03	5.22299485e-05
2.40500000e+00	1.44602752e-03	5.07343197e-05
2.41000000e+00	1.43684907e-03	5.05659095e-05
2.41500000e+00	1.43211511e-03	5.04822367e-05
2.42000000e+00	1.42511184e-03	5.08144373e-05
2.42500000e+00	1.40315129e-03	4.99910531e-05
2.43000000e+00	1.41151412e-03	4.98745694e-05
2.43500000e+00	1.38713082e-03	4.91766049e-05
2.44000000e+00	1.40734102e-03	4.99145098e-05
2.44500000e+00	1.38155610e-03	4.96532376e-05
2.45000000e+00	1.39414597e-03	4.91676079e-05
2.45500000e+00	1.36830624e-03	4.84125795e-05
2.46000000e+00	1.36193149e-03	4.84277178e-05
2.46500000e+00	1.35338839e-03	4.87312808e-05
2.47000000e+00	1.34731806e-03	4.80221678e-05
2.47500000e+00	1.31934929e-03	4.67041818e-05
2.48000000e+00	1.33358171e-03	4.77123935e-05
2.48500000e+00	1.30293535e-03	4.65972415e-05
2.49000000e+00	1.30702636e-03	4.73281037e-05
2.49500000e+00	1.31112109e-03	4.66612356e-05
2.50000000e+00	1.30049468e-03	4.63050728e-05
2.50500000e+00	1.28227520e-03	4.59718124e-05
2.51000000e+00	1.27246476e-03	4.59750851e-05
2.51500000e+00	1.26097907e-03	4.56257954e-05
2.52000000e+00	1.27386511e-03	4.56854180e-05
2.52500000e+00	1.24958336e-03	4.49737827e-05
2.53000000e+00	1.24440186e-03	4.53030939e-05
2.53500000e+00	1.24457576e-03	4.57965973e-05
2.54000000e+00	1.25191877e-03	4.52577794e-05
2.54500000e+00	1.24143784e-03	4.50860963e-05
2.55000000e+00	1.22223646e-03	4.45562375e-05
2.55500000e+00	1.19913886e-03	4.41398054e-05
2.56000000e+00	1.21152744e-03	4.48480392e-05
2.56500000e+00	1.22272567e-03	4.48516473e-05
2.57000000e+00	1.19732921e-03	4.40956863e-05
2.57500000e+00	1.18093481e-03	4.36935110e-05
2.58000000e+00	1.18968867e-03	4.47505636e-05
2.58500000e+00	1.18461202e-03	4.40773352e-05
2.59000000e+00	1.16455093e-03	4.32514381e-05
2.59500000e+00	1.15853808e-03	4.30768374e-05
2.60000000e+00	1.15581511e-03	4.34114936e-05
2.60500000e+00	1.15365616e-03	4.43125514e-05
2.61000000e+00	1.15706070e-03	5.05795968e-05
2.61500000e+00	1.16195809e-03	5.63133812e-05
2.62000000e+00	1.12738277e-03	6.01487120e-05
2.62500000e+00	1.13008257e-03	6.50402561e-05
2.63000000e+00	1.12661842e-03	7.14532629e-05
2.63500000e+00	1.15241256e-03	8.12475647e-05
2.64000000e+00	1.12484217e-03	8.75088625e-05
2.64500000e+00	1.09763703e-03	9.13630633e-05
2.65000000e+00	1.13351903e-03	9.97492477e-05
2.65500000e+00	1.05402464e-03	9.95442490e-05
2.66000000e+00	1.07247591e-03	1.08667346e-04
2.66500000e+00	1.09130951e-03	1.24528044e-04
2.67000000e+00	1.10482909e-03	1.37099328e-04
2.67500000e+00	1.08720970e-03	1.56361957e-04
2.68000000e+00	1.06074179e-03	1.77864125e-04
2.68500000e+00	1.10855999e-03	2.43907137e-04
2.69000000e+00	1.14499724e-03	4.16708691e-04
2.69500000e+00	0.00000000e+00	0.00000000e+00
2.70000000e+00	0.00000000e+00	0.00000000e+00
