% Filename : WDL7c_00026_00036.h5
% Date & Time : 30-Oct-2025 17:03:01
% X-ray Energy (keV) : 13.30001
% Exposure Time (s) : 0.500
% Photodiode Value : 141606.000
% I0 of Sample : 0
% I0 of Standard : 1
% 
% q(A^-1)   I(q)    I(q)_SE
8.40000000e-01	0.00000000e+00	0.00000000e+00
8.45000000e-01	2.74443916e-03	4.80737947e-04
8.50000000e-01	2.69837944e-03	2.50109097e-04
8.55000000e-01	2.57038445e-03	2.10440006e-04
8.60000000e-01	2.62592009e-03	1.85826546e-04
8.65000000e-01	2.60800398e-03	1.69925442e-04
8.70000000e-01	2.62948585e-03	1.63280533e-04
8.75000000e-01	2.60192424e-03	1.55594832e-04
8.80000000e-01	2.63535936e-03	1.52387873e-04
8.85000000e-01	2.59569598e-03	1.41852297e-04
8.90000000e-01	2.63745314e-03	1.41096047e-04
8.95000000e-01	2.65982619e-03	1.38202606e-04
9.00000000e-01	2.67416119e-03	1.37732021e-04
9.05000000e-01	2.67315327e-03	1.31678966e-04
9.10000000e-01	2.67869609e-03	1.29541646e-04
9.15000000e-01	2.68143507e-03	1.27461484e-04
9.20000000e-01	2.65581888e-03	1.26295518e-04
9.25000000e-01	2.66184746e-03	1.21158271e-04
9.30000000e-01	2.67495543e-03	1.20409907e-04
9.35000000e-01	2.72029792e-03	1.20056525e-04
9.40000000e-01	2.70291100e-03	1.19681127e-04
9.45000000e-01	2.69630868e-03	1.16400056e-04
9.50000000e-01	2.71136915e-03	1.15311790e-04
9.55000000e-01	2.70029908e-03	1.12891078e-04
9.60000000e-01	2.71133387e-03	1.13375135e-04
9.65000000e-01	2.71699632e-03	1.11650084e-04
9.70000000e-01	2.71739476e-03	1.09864429e-04
9.75000000e-01	2.74730720e-03	1.09789248e-04
9.80000000e-01	2.73838505e-03	1.08562377e-04
9.85000000e-01	2.71177500e-03	1.07745218e-04
9.90000000e-01	2.75671757e-03	1.06107011e-04
9.95000000e-01	2.74743739e-03	1.05286353e-04
1.00000000e+00	2.75867151e-03	1.05198097e-04
1.00500000e+00	2.72926668e-03	1.04049019e-04
1.01000000e+00	2.75154095e-03	1.02749608e-04
1.01500000e+00	2.72886787e-03	1.01030876e-04
1.02000000e+00	2.74800061e-03	1.01623962e-04
1.02500000e+00	2.73266487e-03	9.97048065e-05
1.03000000e+00	2.74341549e-03	9.98619279e-05
1.03500000e+00	2.71536359e-03	9.74950463e-05
1.04000000e+00	2.73030052e-03	9.73558713e-05
1.04500000e+00	2.69118349e-03	9.60649115e-05
1.05000000e+00	2.69451147e-03	9.56107262e-05
1.05500000e+00	2.68134150e-03	9.36070444e-05
1.06000000e+00	2.70918902e-03	9.44181169e-05
1.06500000e+00	2.71581252e-03	9.46311190e-05
1.07000000e+00	2.73064250e-03	9.50447126e-05
1.07500000e+00	2.72611223e-03	9.42116306e-05
1.08000000e+00	2.73770067e-03	9.40040919e-05
1.08500000e+00	2.74455516e-03	9.44225457e-05
1.09000000e+00	2.74983099e-03	9.49930406e-05
1.09500000e+00	2.73510059e-03	9.26208374e-05
1.10000000e+00	2.76186983e-03	9.41081928e-05
1.10500000e+00	2.74789196e-03	9.39521812e-05
1.11000000e+00	2.76038933e-03	9.45229323e-05
1.11500000e+00	2.76851511e-03	9.41310867e-05
1.12000000e+00	2.77729397e-03	9.47527803e-05
1.12500000e+00	2.80090851e-03	9.53200776e-05
1.13000000e+00	2.77182812e-03	9.55748811e-05
1.13500000e+00	2.79922563e-03	9.52885274e-05
1.14000000e+00	2.80949746e-03	9.53782980e-05
1.14500000e+00	2.82069738e-03	9.66243343e-05
1.15000000e+00	2.82284346e-03	9.72053408e-05
1.15500000e+00	2.81670135e-03	9.60035252e-05
1.16000000e+00	2.83050766e-03	9.67531668e-05
1.16500000e+00	2.84187818e-03	9.69934582e-05
1.17000000e+00	2.85141387e-03	9.85632670e-05
1.17500000e+00	2.83894646e-03	9.66981703e-05
1.18000000e+00	2.85284163e-03	9.75949600e-05
1.18500000e+00	2.86996644e-03	9.80820227e-05
1.19000000e+00	2.85561748e-03	9.86871714e-05
1.19500000e+00	2.87446251e-03	9.80506274e-05
1.20000000e+00	2.87704727e-03	9.87220319e-05
1.20500000e+00	2.87777110e-03	9.84810459e-05
1.21000000e+00	2.88324309e-03	1.00048709e-04
1.21500000e+00	2.88914858e-03	9.85705604e-05
1.22000000e+00	2.88366743e-03	9.85379880e-05
1.22500000e+00	2.88472958e-03	9.90070864e-05
1.23000000e+00	2.89475795e-03	1.00085627e-04
1.23500000e+00	2.88732382e-03	9.92410058e-05
1.24000000e+00	2.89454556e-03	9.89722535e-05
1.24500000e+00	2.89176255e-03	9.96242168e-05
1.25000000e+00	2.89941122e-03	1.00454792e-04
1.25500000e+00	2.91045334e-03	9.96038069e-05
1.26000000e+00	2.94249409e-03	1.01240887e-04
1.26500000e+00	2.90938897e-03	9.98064803e-05
1.27000000e+00	2.93344231e-03	1.02088598e-04
1.27500000e+00	2.92890119e-03	1.00903970e-04
1.28000000e+00	2.91119728e-03	9.96792603e-05
1.28500000e+00	2.89455478e-03	9.96527584e-05
1.29000000e+00	2.91534977e-03	1.01219273e-04
1.29500000e+00	2.91822960e-03	1.00288911e-04
1.30000000e+00	2.91296241e-03	9.99688557e-05
1.30500000e+00	2.91457116e-03	1.00424395e-04
1.31000000e+00	2.90677592e-03	1.01466712e-04
1.31500000e+00	2.90715186e-03	1.00150939e-04
1.32000000e+00	2.92540721e-03	1.00624137e-04
1.32500000e+00	2.91849920e-03	1.00637844e-04
1.33000000e+00	2.92653122e-03	1.02185612e-04
1.33500000e+00	2.91182386e-03	1.00302888e-04
1.34000000e+00	2.92425280e-03	1.00803920e-04
1.34500000e+00	2.92726219e-03	1.01249855e-04
1.35000000e+00	2.92346603e-03	1.02126709e-04
1.35500000e+00	2.90455362e-03	1.00065836e-04
1.36000000e+00	2.91610704e-03	1.00249476e-04
1.36500000e+00	2.92046847e-03	1.00826914e-04
1.37000000e+00	2.89786067e-03	1.01529146e-04
1.37500000e+00	2.90072071e-03	9.99644077e-05
1.38000000e+00	2.90408126e-03	1.00434631e-04
1.38500000e+00	2.90817082e-03	1.01080037e-04
1.39000000e+00	2.89864397e-03	1.01386746e-04
1.39500000e+00	2.91817246e-03	1.00515652e-04
1.40000000e+00	2.93132929e-03	1.04098282e-04
1.40500000e+00	2.88387816e-03	1.10164048e-04
1.41000000e+00	2.89073163e-03	1.15651881e-04
1.41500000e+00	2.86056021e-03	1.18616755e-04
1.42000000e+00	2.84735172e-03	1.22846779e-04
1.42500000e+00	2.83593363e-03	1.26072538e-04
1.43000000e+00	2.80171959e-03	1.29152756e-04
1.43500000e+00	2.82806030e-03	1.34269390e-04
1.44000000e+00	2.80015857e-03	1.38357160e-04
1.44500000e+00	2.78192957e-03	1.40951659e-04
1.45000000e+00	2.84605465e-03	1.39666302e-04
1.45500000e+00	2.87040303e-03	1.26382502e-04
1.46000000e+00	2.82870265e-03	1.21510995e-04
1.46500000e+00	2.86180062e-03	1.20740596e-04
1.47000000e+00	2.85893906e-03	1.20360072e-04
1.47500000e+00	2.85773936e-03	1.16824826e-04
1.48000000e+00	2.84461526e-03	1.15082060e-04
1.48500000e+00	2.84001818e-03	1.14927017e-04
1.49000000e+00	2.86955088e-03	1.16453414e-04
1.49500000e+00	2.85506773e-03	1.13292108e-04
1.50000000e+00	2.86843930e-03	1.13433032e-04
1.50500000e+00	2.85928397e-03	1.13603294e-04
1.51000000e+00	2.87067305e-03	1.14396570e-04
1.51500000e+00	2.88840426e-03	1.13136960e-04
1.52000000e+00	2.88690930e-03	1.12590337e-04
1.52500000e+00	2.88303250e-03	1.12406008e-04
1.53000000e+00	2.86952621e-03	1.12545683e-04
1.53500000e+00	2.85558118e-03	1.08828348e-04
1.54000000e+00	2.85794476e-03	1.08762409e-04
1.54500000e+00	2.86355469e-03	1.08772058e-04
1.55000000e+00	2.84507667e-03	1.07707303e-04
1.55500000e+00	2.82926360e-03	1.04697038e-04
1.56000000e+00	2.82670830e-03	1.04839116e-04
1.56500000e+00	2.80110811e-03	1.03418828e-04
1.57000000e+00	2.78478599e-03	1.02120824e-04
1.57500000e+00	2.77830969e-03	9.99629271e-05
1.58000000e+00	2.76825988e-03	9.94058120e-05
1.58500000e+00	2.76870512e-03	9.94556179e-05
1.59000000e+00	2.77289790e-03	9.96912885e-05
1.59500000e+00	2.75497626e-03	9.70967139e-05
1.60000000e+00	2.74960963e-03	9.68211392e-05
1.60500000e+00	2.75265119e-03	9.71053641e-05
1.61000000e+00	2.74393518e-03	9.62720914e-05
1.61500000e+00	2.72201860e-03	9.46732480e-05
1.62000000e+00	2.72219279e-03	9.51320935e-05
1.62500000e+00	2.69624600e-03	9.53409749e-05
1.63000000e+00	2.69536464e-03	9.41915121e-05
1.63500000e+00	2.71440465e-03	9.48822535e-05
1.64000000e+00	2.70732906e-03	9.46394039e-05
1.64500000e+00	2.69830905e-03	9.54307133e-05
1.65000000e+00	2.70506419e-03	9.46242062e-05
1.65500000e+00	2.68265572e-03	9.37647742e-05
1.66000000e+00	2.70785004e-03	9.46757958e-05
1.66500000e+00	2.68122344e-03	9.52605686e-05
1.67000000e+00	2.68683906e-03	9.35747885e-05
1.67500000e+00	2.66855195e-03	9.31929611e-05
1.68000000e+00	2.64332271e-03	9.25952531e-05
1.68500000e+00	2.66169626e-03	9.47181924e-05
1.69000000e+00	2.63206628e-03	9.19048777e-05
1.69500000e+00	2.64671727e-03	9.22234178e-05
1.70000000e+00	2.63261308e-03	9.28164810e-05
1.70500000e+00	2.61423072e-03	9.25038655e-05
1.71000000e+00	2.63454045e-03	9.20393874e-05
1.71500000e+00	2.61202087e-03	9.12789281e-05
1.72000000e+00	2.62041826e-03	9.22205246e-05
1.72500000e+00	2.58001652e-03	9.13853055e-05
1.73000000e+00	2.59808785e-03	9.08046642e-05
1.73500000e+00	2.59815303e-03	9.10575735e-05
1.74000000e+00	2.57057780e-03	9.03309632e-05
1.74500000e+00	2.56608601e-03	9.12388015e-05
1.75000000e+00	2.55910537e-03	8.92086769e-05
1.75500000e+00	2.56316838e-03	8.98940826e-05
1.76000000e+00	2.55946575e-03	8.97866672e-05
1.76500000e+00	2.56255769e-03	9.09834645e-05
1.77000000e+00	2.55555791e-03	8.92469948e-05
1.77500000e+00	2.54971713e-03	8.93072798e-05
1.78000000e+00	2.52772256e-03	8.88742087e-05
1.78500000e+00	2.52752474e-03	8.97594461e-05
1.79000000e+00	2.52138002e-03	8.80109126e-05
1.79500000e+00	2.50105340e-03	8.75524737e-05
1.80000000e+00	2.48638296e-03	8.75867198e-05
1.80500000e+00	2.49460033e-03	8.84253406e-05
1.81000000e+00	2.48508308e-03	8.67837576e-05
1.81500000e+00	2.46701152e-03	8.62698107e-05
1.82000000e+00	2.46816748e-03	8.69000121e-05
1.82500000e+00	2.48217108e-03	8.79198076e-05
1.83000000e+00	2.45935230e-03	8.60604156e-05
1.83500000e+00	2.46226835e-03	8.62050130e-05
1.84000000e+00	2.43866695e-03	8.58690921e-05
1.84500000e+00	2.44054584e-03	8.64460305e-05
1.85000000e+00	2.42851927e-03	8.50405206e-05
1.85500000e+00	2.43718185e-03	8.53300433e-05
1.86000000e+00	2.42941774e-03	8.56632336e-05
1.86500000e+00	2.42855786e-03	8.58692400e-05
1.87000000e+00	2.39606333e-03	8.37898212e-05
1.87500000e+00	2.40162199e-03	8.41976800e-05
1.88000000e+00	2.39164514e-03	8.42277893e-05
1.88500000e+00	2.37897584e-03	8.43279105e-05
1.89000000e+00	2.38985083e-03	8.36003060e-05
1.89500000e+00	2.35369718e-03	8.27784482e-05
1.90000000e+00	2.36130246e-03	8.32767277e-05
1.90500000e+00	2.35424560e-03	8.30589728e-05
1.91000000e+00	2.36141384e-03	8.27392411e-05
1.91500000e+00	2.34284906e-03	8.21770565e-05
1.92000000e+00	2.34227447e-03	8.25483290e-05
1.92500000e+00	2.33489460e-03	8.24336921e-05
1.93000000e+00	2.31119409e-03	8.08682099e-05
1.93500000e+00	2.30754504e-03	8.10298450e-05
1.94000000e+00	2.30879707e-03	8.16734768e-05
1.94500000e+00	2.31312865e-03	8.15615166e-05
1.95000000e+00	2.30491272e-03	8.05869059e-05
1.95500000e+00	2.29291482e-03	8.04273273e-05
1.96000000e+00	2.27300764e-03	8.02566352e-05
1.96500000e+00	2.27552754e-03	8.04334602e-05
1.97000000e+00	2.28064518e-03	7.95869538e-05
1.97500000e+00	2.25353683e-03	7.92419205e-05
1.98000000e+00	2.25635097e-03	7.96528045e-05
1.98500000e+00	2.24251850e-03	7.93136102e-05
1.99000000e+00	2.23585195e-03	7.80529293e-05
1.99500000e+00	2.23257579e-03	7.83093585e-05
2.00000000e+00	2.21259498e-03	7.81267800e-05
2.00500000e+00	2.26147236e-03	8.00128099e-05
2.01000000e+00	2.22966527e-03	8.66537968e-05
2.01500000e+00	2.19382724e-03	9.04671072e-05
2.02000000e+00	2.17740558e-03	9.57396401e-05
2.02500000e+00	2.18017670e-03	9.96078416e-05
2.03000000e+00	2.15061873e-03	1.03975127e-04
2.03500000e+00	2.14637289e-03	1.08597072e-04
2.04000000e+00	2.13512954e-03	1.12802926e-04
2.04500000e+00	2.10222729e-03	1.16901316e-04
2.05000000e+00	2.08937974e-03	1.21904536e-04
2.05500000e+00	2.11093164e-03	1.20892226e-04
2.06000000e+00	2.14329945e-03	1.06913886e-04
2.06500000e+00	2.12749106e-03	1.01278408e-04
2.07000000e+00	2.12546406e-03	9.56418798e-05
2.07500000e+00	2.13089453e-03	9.38434987e-05
2.08000000e+00	2.11566978e-03	9.30118872e-05
2.08500000e+00	2.10748217e-03	9.18405021e-05
2.09000000e+00	2.11898585e-03	8.94963971e-05
2.09500000e+00	2.12934124e-03	8.89811796e-05
2.10000000e+00	2.07841149e-03	8.62561305e-05
2.10500000e+00	2.11167867e-03	8.73740120e-05
2.11000000e+00	2.06438004e-03	8.22601261e-05
2.11500000e+00	2.08148985e-03	8.21687445e-05
2.12000000e+00	2.05259929e-03	8.06317151e-05
2.12500000e+00	2.02272319e-03	7.92138411e-05
2.13000000e+00	2.03634995e-03	7.65089765e-05
2.13500000e+00	2.00191199e-03	7.43003594e-05
2.14000000e+00	1.97798330e-03	7.27246885e-05
2.14500000e+00	1.96862472e-03	7.25712751e-05
2.15000000e+00	1.97503349e-03	7.04911052e-05
2.15500000e+00	1.95574608e-03	6.99011774e-05
2.16000000e+00	1.96305526e-03	6.97720258e-05
2.16500000e+00	1.93329491e-03	6.92459090e-05
2.17000000e+00	1.93278307e-03	6.74939875e-05
2.17500000e+00	1.94379330e-03	6.81115799e-05
2.18000000e+00	1.91988887e-03	6.74323655e-05
2.18500000e+00	1.89743362e-03	6.69994914e-05
2.19000000e+00	1.90037083e-03	6.69502620e-05
2.19500000e+00	1.88990364e-03	6.61328162e-05
2.20000000e+00	1.88654455e-03	6.62163043e-05
2.20500000e+00	1.85766246e-03	6.54773001e-05
2.21000000e+00	1.85666218e-03	6.56617017e-05
2.21500000e+00	1.84316832e-03	6.45247545e-05
2.22000000e+00	1.83519840e-03	6.41768408e-05
2.22500000e+00	1.82745839e-03	6.44452844e-05
2.23000000e+00	1.83760617e-03	6.51397663e-05
2.23500000e+00	1.78402195e-03	6.23669451e-05
2.24000000e+00	1.79748893e-03	6.29048846e-05
2.24500000e+00	1.77988399e-03	6.27265321e-05
2.25000000e+00	1.75985517e-03	6.26410513e-05
2.25500000e+00	1.73979742e-03	6.07876340e-05
2.26000000e+00	1.75590961e-03	6.15209077e-05
2.26500000e+00	1.73420262e-03	6.09143784e-05
2.27000000e+00	1.72740063e-03	6.16268137e-05
2.27500000e+00	1.70920281e-03	5.97268789e-05
2.28000000e+00	1.70530498e-03	5.96277149e-05
2.28500000e+00	1.68537803e-03	5.92973118e-05
2.29000000e+00	1.66775008e-03	5.89842712e-05
2.29500000e+00	1.67904761e-03	5.92311928e-05
2.30000000e+00	1.63700339e-03	5.71816937e-05
2.30500000e+00	1.64010478e-03	5.74833469e-05
2.31000000e+00	1.63257355e-03	5.74451697e-05
2.31500000e+00	1.61919809e-03	5.74751177e-05
2.32000000e+00	1.59221689e-03	5.53743914e-05
2.32500000e+00	1.60597197e-03	5.63093788e-05
2.33000000e+00	1.59856668e-03	5.61840018e-05
2.33500000e+00	1.59366279e-03	5.65391242e-05
2.34000000e+00	1.57254168e-03	5.48601340e-05
2.34500000e+00	1.57219600e-03	5.48644332e-05
2.35000000e+00	1.54418602e-03	5.41092701e-05
2.35500000e+00	1.55821215e-03	5.53276570e-05
2.36000000e+00	1.54357294e-03	5.40347337e-05
2.36500000e+00	1.52379610e-03	5.32963695e-05
2.37000000e+00	1.49908503e-03	5.24235082e-05
2.37500000e+00	1.51503008e-03	5.35099749e-05
2.38000000e+00	1.49670501e-03	5.30999885e-05
2.38500000e+00	1.49320457e-03	5.22371239e-05
2.39000000e+00	1.47643087e-03	5.17652304e-05
2.39500000e+00	1.45618818e-03	5.13706950e-05
2.40000000e+00	1.47159783e-03	5.26746080e-05
2.40500000e+00	1.45967494e-03	5.11882787e-05
2.41000000e+00	1.44551369e-03	5.08489742e-05
2.41500000e+00	1.42648128e-03	5.02074648e-05
2.42000000e+00	1.42323729e-03	5.07063860e-05
2.42500000e+00	1.42827206e-03	5.08819875e-05
2.43000000e+00	1.40576788e-03	4.95857282e-05
2.43500000e+00	1.41162239e-03	5.00030008e-05
2.44000000e+00	1.39973711e-03	4.96495441e-05
2.44500000e+00	1.38924035e-03	4.99175177e-05
2.45000000e+00	1.37092838e-03	4.83772039e-05
2.45500000e+00	1.36975128e-03	4.84881554e-05
2.46000000e+00	1.35449956e-03	4.81377890e-05
2.46500000e+00	1.35820508e-03	4.89059844e-05
2.47000000e+00	1.34232865e-03	4.78659911e-05
2.47500000e+00	1.32836251e-03	4.70656639e-05
2.48000000e+00	1.33621901e-03	4.77100311e-05
2.48500000e+00	1.32529093e-03	4.72911745e-05
2.49000000e+00	1.31823870e-03	4.76900756e-05
2.49500000e+00	1.28834635e-03	4.57900728e-05
2.50000000e+00	1.30083979e-03	4.63464330e-05
2.50500000e+00	1.28462470e-03	4.60261828e-05
2.51000000e+00	1.28831675e-03	4.64782410e-05
2.51500000e+00	1.28603312e-03	4.64577161e-05
2.52000000e+00	1.27213914e-03	4.55124941e-05
2.52500000e+00	1.25819162e-03	4.52855508e-05
2.53000000e+00	1.24346258e-03	4.52449976e-05
2.53500000e+00	1.23941537e-03	4.55645603e-05
2.54000000e+00	1.23662805e-03	4.47148993e-05
2.54500000e+00	1.24555084e-03	4.53029986e-05
2.55000000e+00	1.22213664e-03	4.45530716e-05
2.55500000e+00	1.21318098e-03	4.46516686e-05
2.56000000e+00	1.21830572e-03	4.50083266e-05
2.56500000e+00	1.18692744e-03	4.35142007e-05
2.57000000e+00	1.20123191e-03	4.42386491e-05
2.57500000e+00	1.19682220e-03	4.41956904e-05
2.58000000e+00	1.18956408e-03	4.46232839e-05
2.58500000e+00	1.17717641e-03	4.38224742e-05
2.59000000e+00	1.15812325e-03	4.30034973e-05
2.59500000e+00	1.16957525e-03	4.36005529e-05
2.60000000e+00	1.14741370e-03	4.30517877e-05
2.60500000e+00	1.17910165e-03	4.52452089e-05
2.61000000e+00	1.13997068e-03	4.98543602e-05
2.61500000e+00	1.15124315e-03	5.56218196e-05
2.62000000e+00	1.13064190e-03	6.01261405e-05
2.62500000e+00	1.13080472e-03	6.49695190e-05
2.63000000e+00	1.14039935e-03	7.27218727e-05
2.63500000e+00	1.11544853e-03	7.89824461e-05
2.64000000e+00	1.09484478e-03	8.52603856e-05
2.64500000e+00	1.11130071e-03	9.22514081e-05
2.65000000e+00	1.10636524e-03	9.69757271e-05
2.65500000e+00	1.13258144e-03	1.07225502e-04
2.66000000e+00	1.09424970e-03	1.10284968e-04
2.66500000e+00	1.05494066e-03	1.19913816e-04
2.67000000e+00	1.11215940e-03	1.36984774e-04
2.67500000e+00	1.10120828e-03	1.59072492e-04
2.68000000e+00	1.03293454e-03	1.73619989e-04
2.68500000e+00	1.06791003e-03	2.37358520e-04
2.69000000e+00	1.24552560e-03	4.45332083e-04
2.69500000e+00	0.00000000e+00	0.00000000e+00
2.70000000e+00	0.00000000e+00	0.00000000e+00
