% Filename : WDL7_00012_00267.h5
% Date & Time : 30-Oct-2025 15:02:13
% X-ray Energy (keV) : 13.30001
% Exposure Time (s) : 0.500
% Photodiode Value : 136400.000
% I0 of Sample : 0
% I0 of Standard : 1
% 
% q(A^-1)   I(q)    I(q)_SE
8.40000000e-01	0.00000000e+00	0.00000000e+00
8.45000000e-01	2.75917321e-03	4.83782220e-04
8.50000000e-01	2.65418003e-03	2.46686883e-04
8.55000000e-01	2.63889753e-03	2.15447898e-04
8.60000000e-01	2.61440814e-03	1.85176064e-04
8.65000000e-01	2.59692652e-03	1.69404481e-04
8.70000000e-01	2.61929332e-03	1.62726987e-04
8.75000000e-01	2.59006308e-03	1.54957129e-04
8.80000000e-01	2.64975805e-03	1.53275909e-04
8.85000000e-01	2.63550019e-03	1.43953674e-04
8.90000000e-01	2.61323759e-03	1.39770736e-04
8.95000000e-01	2.63224984e-03	1.36800350e-04
9.00000000e-01	2.62781110e-03	1.35311832e-04
9.05000000e-01	2.63314059e-03	1.29741336e-04
9.10000000e-01	2.64279578e-03	1.27725070e-04
9.15000000e-01	2.67553926e-03	1.27332639e-04
9.20000000e-01	2.66331808e-03	1.26541142e-04
9.25000000e-01	2.66819326e-03	1.21316909e-04
9.30000000e-01	2.66890208e-03	1.20178471e-04
9.35000000e-01	2.70474868e-03	1.19472945e-04
9.40000000e-01	2.68861933e-03	1.19159718e-04
9.45000000e-01	2.71436352e-03	1.17232933e-04
9.50000000e-01	2.70672124e-03	1.15108319e-04
9.55000000e-01	2.70999656e-03	1.13330228e-04
9.60000000e-01	2.69622491e-03	1.12725477e-04
9.65000000e-01	2.70620286e-03	1.11344169e-04
9.70000000e-01	2.72400118e-03	1.10294882e-04
9.75000000e-01	2.73301613e-03	1.09333618e-04
9.80000000e-01	2.72897830e-03	1.08318897e-04
9.85000000e-01	2.72619383e-03	1.08290033e-04
9.90000000e-01	2.74025710e-03	1.05582684e-04
9.95000000e-01	2.72764692e-03	1.04571653e-04
1.00000000e+00	2.72108640e-03	1.03858203e-04
1.00500000e+00	2.74424558e-03	1.04767249e-04
1.01000000e+00	2.74058382e-03	1.02374647e-04
1.01500000e+00	2.72688835e-03	1.00859613e-04
1.02000000e+00	2.73426526e-03	1.01092523e-04
1.02500000e+00	2.73390196e-03	9.99240535e-05
1.03000000e+00	2.73830044e-03	9.96359967e-05
1.03500000e+00	2.72889074e-03	9.80116969e-05
1.04000000e+00	2.70538378e-03	9.64522777e-05
1.04500000e+00	2.69875313e-03	9.62892838e-05
1.05000000e+00	2.70584889e-03	9.60869884e-05
1.05500000e+00	2.70689392e-03	9.45297598e-05
1.06000000e+00	2.69583402e-03	9.39909434e-05
1.06500000e+00	2.70580907e-03	9.43434517e-05
1.07000000e+00	2.71262449e-03	9.45516041e-05
1.07500000e+00	2.72533705e-03	9.41726968e-05
1.08000000e+00	2.71247456e-03	9.32148375e-05
1.08500000e+00	2.71941593e-03	9.33883711e-05
1.09000000e+00	2.72562390e-03	9.42240644e-05
1.09500000e+00	2.73946225e-03	9.28579348e-05
1.10000000e+00	2.76322102e-03	9.42068258e-05
1.10500000e+00	2.76290034e-03	9.44842817e-05
1.11000000e+00	2.75033012e-03	9.41791430e-05
1.11500000e+00	2.77333588e-03	9.44183700e-05
1.12000000e+00	2.76878189e-03	9.45336823e-05
1.12500000e+00	2.76356788e-03	9.42357396e-05
1.13000000e+00	2.77251772e-03	9.55531560e-05
1.13500000e+00	2.79385124e-03	9.51552177e-05
1.14000000e+00	2.80797689e-03	9.53007956e-05
1.14500000e+00	2.82169459e-03	9.66287618e-05
1.15000000e+00	2.81177596e-03	9.67704898e-05
1.15500000e+00	2.84489022e-03	9.68187456e-05
1.16000000e+00	2.82358440e-03	9.65167951e-05
1.16500000e+00	2.84510133e-03	9.71852921e-05
1.17000000e+00	2.82724653e-03	9.77534675e-05
1.17500000e+00	2.84837000e-03	9.70512264e-05
1.18000000e+00	2.85318645e-03	9.76250021e-05
1.18500000e+00	2.83318898e-03	9.69020823e-05
1.19000000e+00	2.86155217e-03	9.89034167e-05
1.19500000e+00	2.85756039e-03	9.75139097e-05
1.20000000e+00	2.88304801e-03	9.89749023e-05
1.20500000e+00	2.86338360e-03	9.80904217e-05
1.21000000e+00	2.87057980e-03	9.95874307e-05
1.21500000e+00	2.87908829e-03	9.82612830e-05
1.22000000e+00	2.88225054e-03	9.84992616e-05
1.22500000e+00	2.89064045e-03	9.91540563e-05
1.23000000e+00	2.89786644e-03	1.00244176e-04
1.23500000e+00	2.86749599e-03	9.84846255e-05
1.24000000e+00	2.89281835e-03	9.89365418e-05
1.24500000e+00	2.90639866e-03	1.00045250e-04
1.25000000e+00	2.90355998e-03	1.00580079e-04
1.25500000e+00	2.91638292e-03	9.98471268e-05
1.26000000e+00	2.90005491e-03	9.98621989e-05
1.26500000e+00	2.91720809e-03	1.00072202e-04
1.27000000e+00	2.89805096e-03	1.00906119e-04
1.27500000e+00	2.91795936e-03	1.00593800e-04
1.28000000e+00	2.91154066e-03	9.96912907e-05
1.28500000e+00	2.92457736e-03	1.00708002e-04
1.29000000e+00	2.91535365e-03	1.01263061e-04
1.29500000e+00	2.92121665e-03	1.00424465e-04
1.30000000e+00	2.89261945e-03	9.91590882e-05
1.30500000e+00	2.90759637e-03	1.00190709e-04
1.31000000e+00	2.91019480e-03	1.01579388e-04
1.31500000e+00	2.89971754e-03	9.98870424e-05
1.32000000e+00	2.90882217e-03	1.00155162e-04
1.32500000e+00	2.92971939e-03	1.01165276e-04
1.33000000e+00	2.91016515e-03	1.01639289e-04
1.33500000e+00	2.90236826e-03	9.99790834e-05
1.34000000e+00	2.92254637e-03	1.00768944e-04
1.34500000e+00	2.92074505e-03	1.01057873e-04
1.35000000e+00	2.92445158e-03	1.02183825e-04
1.35500000e+00	2.91221380e-03	1.00325921e-04
1.36000000e+00	2.90465886e-03	9.98968569e-05
1.36500000e+00	2.90947379e-03	1.00416814e-04
1.37000000e+00	2.90847866e-03	1.01809329e-04
1.37500000e+00	2.90576146e-03	1.00259862e-04
1.38000000e+00	2.89670943e-03	1.00102837e-04
1.38500000e+00	2.88574120e-03	1.00245413e-04
1.39000000e+00	2.90185504e-03	1.01547085e-04
1.39500000e+00	2.89413128e-03	9.97842488e-05
1.40000000e+00	2.93523207e-03	1.04188312e-04
1.40500000e+00	2.87781037e-03	1.09994283e-04
1.41000000e+00	2.86461282e-03	1.14686469e-04
1.41500000e+00	2.84604126e-03	1.18033473e-04
1.42000000e+00	2.84567261e-03	1.22866249e-04
1.42500000e+00	2.82068308e-03	1.25350750e-04
1.43000000e+00	2.80948672e-03	1.29498414e-04
1.43500000e+00	2.76633739e-03	1.31439448e-04
1.44000000e+00	2.82091554e-03	1.39307324e-04
1.44500000e+00	2.78469246e-03	1.41278526e-04
1.45000000e+00	2.86720171e-03	1.40411741e-04
1.45500000e+00	2.88332091e-03	1.26932739e-04
1.46000000e+00	2.84814350e-03	1.22492373e-04
1.46500000e+00	2.86763395e-03	1.20966507e-04
1.47000000e+00	2.84391886e-03	1.19870178e-04
1.47500000e+00	2.86603252e-03	1.17102640e-04
1.48000000e+00	2.85523828e-03	1.15479475e-04
1.48500000e+00	2.86749606e-03	1.16047680e-04
1.49000000e+00	2.84090176e-03	1.15294069e-04
1.49500000e+00	2.83667100e-03	1.12512021e-04
1.50000000e+00	2.83632096e-03	1.12240069e-04
1.50500000e+00	2.86094809e-03	1.13719014e-04
1.51000000e+00	2.85633661e-03	1.13734247e-04
1.51500000e+00	2.83974519e-03	1.11248605e-04
1.52000000e+00	2.84692355e-03	1.11190141e-04
1.52500000e+00	2.89458251e-03	1.12854806e-04
1.53000000e+00	2.88463621e-03	1.13171346e-04
1.53500000e+00	2.85898370e-03	1.09079030e-04
1.54000000e+00	2.86284362e-03	1.09012266e-04
1.54500000e+00	2.83003973e-03	1.07475691e-04
1.55000000e+00	2.84358354e-03	1.07784988e-04
1.55500000e+00	2.83139819e-03	1.04807148e-04
1.56000000e+00	2.82631316e-03	1.04905416e-04
1.56500000e+00	2.79727389e-03	1.03345218e-04
1.57000000e+00	2.80075318e-03	1.02683786e-04
1.57500000e+00	2.79109320e-03	1.00420483e-04
1.58000000e+00	2.76385102e-03	9.93039660e-05
1.58500000e+00	2.75670442e-03	9.89738308e-05
1.59000000e+00	2.74864614e-03	9.88219314e-05
1.59500000e+00	2.73491218e-03	9.64080874e-05
1.60000000e+00	2.72693131e-03	9.61061754e-05
1.60500000e+00	2.73992924e-03	9.65834194e-05
1.61000000e+00	2.74908878e-03	9.65490917e-05
1.61500000e+00	2.70269159e-03	9.40318058e-05
1.62000000e+00	2.71759628e-03	9.50164053e-05
1.62500000e+00	2.70120391e-03	9.54835247e-05
1.63000000e+00	2.71259315e-03	9.49201518e-05
1.63500000e+00	2.70878056e-03	9.47293641e-05
1.64000000e+00	2.67795710e-03	9.36639708e-05
1.64500000e+00	2.70120203e-03	9.55119332e-05
1.65000000e+00	2.68942379e-03	9.40846610e-05
1.65500000e+00	2.67678007e-03	9.34880035e-05
1.66000000e+00	2.65418835e-03	9.27780384e-05
1.66500000e+00	2.66927750e-03	9.49868661e-05
1.67000000e+00	2.65696416e-03	9.25956057e-05
1.67500000e+00	2.65553348e-03	9.26955209e-05
1.68000000e+00	2.64978448e-03	9.27915869e-05
1.68500000e+00	2.65822229e-03	9.47148028e-05
1.69000000e+00	2.62520500e-03	9.16590212e-05
1.69500000e+00	2.63727532e-03	9.19061101e-05
1.70000000e+00	2.63590177e-03	9.29609136e-05
1.70500000e+00	2.60860226e-03	9.23642779e-05
1.71000000e+00	2.61151953e-03	9.13189443e-05
1.71500000e+00	2.60114081e-03	9.09159726e-05
1.72000000e+00	2.60232663e-03	9.16093514e-05
1.72500000e+00	2.60016284e-03	9.21783250e-05
1.73000000e+00	2.59056758e-03	9.05500837e-05
1.73500000e+00	2.56129150e-03	8.97731147e-05
1.74000000e+00	2.58506763e-03	9.07881450e-05
1.74500000e+00	2.56972686e-03	9.13846185e-05
1.75000000e+00	2.56589164e-03	8.95385902e-05
1.75500000e+00	2.55684594e-03	8.96746151e-05
1.76000000e+00	2.55769947e-03	8.98028844e-05
1.76500000e+00	2.52851686e-03	8.99245911e-05
1.77000000e+00	2.53539424e-03	8.85892945e-05
1.77500000e+00	2.50282721e-03	8.77255981e-05
1.78000000e+00	2.53599750e-03	8.92157305e-05
1.78500000e+00	2.50670863e-03	8.90815412e-05
1.79000000e+00	2.50710676e-03	8.75927874e-05
1.79500000e+00	2.50904519e-03	8.79356872e-05
1.80000000e+00	2.48745893e-03	8.76214049e-05
1.80500000e+00	2.50020639e-03	8.86977983e-05
1.81000000e+00	2.46722485e-03	8.62375347e-05
1.81500000e+00	2.47558813e-03	8.65913177e-05
1.82000000e+00	2.48159954e-03	8.74081894e-05
1.82500000e+00	2.46476643e-03	8.72645874e-05
1.83000000e+00	2.43993599e-03	8.52863901e-05
1.83500000e+00	2.43740461e-03	8.54315150e-05
1.84000000e+00	2.43384376e-03	8.57984564e-05
1.84500000e+00	2.42985993e-03	8.60768286e-05
1.85000000e+00	2.42623524e-03	8.50053185e-05
1.85500000e+00	2.40810766e-03	8.44083385e-05
1.86000000e+00	2.39202178e-03	8.44186086e-05
1.86500000e+00	2.40754804e-03	8.51991425e-05
1.87000000e+00	2.41278916e-03	8.44196549e-05
1.87500000e+00	2.40086228e-03	8.42430016e-05
1.88000000e+00	2.39410913e-03	8.43493186e-05
1.88500000e+00	2.36037445e-03	8.37003122e-05
1.89000000e+00	2.36878092e-03	8.28497323e-05
1.89500000e+00	2.37039353e-03	8.34023664e-05
1.90000000e+00	2.35786129e-03	8.31598871e-05
1.90500000e+00	2.34976914e-03	8.29884682e-05
1.91000000e+00	2.32860553e-03	8.16677002e-05
1.91500000e+00	2.33660039e-03	8.19846993e-05
1.92000000e+00	2.30154571e-03	8.11564645e-05
1.92500000e+00	2.31053741e-03	8.16161124e-05
1.93000000e+00	2.32534782e-03	8.14272559e-05
1.93500000e+00	2.31047573e-03	8.10582978e-05
1.94000000e+00	2.28432670e-03	8.08575882e-05
1.94500000e+00	2.30546451e-03	8.12733349e-05
1.95000000e+00	2.28910406e-03	8.00624516e-05
1.95500000e+00	2.28634545e-03	8.02692891e-05
1.96000000e+00	2.25961185e-03	7.97985852e-05
1.96500000e+00	2.25653070e-03	7.97087242e-05
1.97000000e+00	2.25506751e-03	7.87754930e-05
1.97500000e+00	2.25231863e-03	7.91995263e-05
1.98000000e+00	2.23638061e-03	7.88914716e-05
1.98500000e+00	2.22899643e-03	7.88787928e-05
1.99000000e+00	2.24117243e-03	7.82549804e-05
1.99500000e+00	2.22035434e-03	7.79918371e-05
2.00000000e+00	2.22895722e-03	7.86986977e-05
2.00500000e+00	2.23373768e-03	7.91057896e-05
2.01000000e+00	2.20884516e-03	8.57302011e-05
2.01500000e+00	2.18505888e-03	9.01044638e-05
2.02000000e+00	2.17022021e-03	9.55345959e-05
2.02500000e+00	2.13781421e-03	9.76924834e-05
2.03000000e+00	2.15670737e-03	1.04538143e-04
2.03500000e+00	2.14988806e-03	1.08696790e-04
2.04000000e+00	2.08835438e-03	1.10567805e-04
2.04500000e+00	2.10459792e-03	1.16966541e-04
2.05000000e+00	2.05806258e-03	1.20384025e-04
2.05500000e+00	2.13668429e-03	1.22128988e-04
2.06000000e+00	2.14099309e-03	1.06650622e-04
2.06500000e+00	2.13452355e-03	1.01630394e-04
2.07000000e+00	2.11879201e-03	9.53863354e-05
2.07500000e+00	2.11807589e-03	9.32555541e-05
2.08000000e+00	2.10577632e-03	9.25855991e-05
2.08500000e+00	2.08988610e-03	9.10570799e-05
2.09000000e+00	2.10049096e-03	8.87838703e-05
2.09500000e+00	2.08172521e-03	8.70275822e-05
2.10000000e+00	2.10306963e-03	8.73471063e-05
2.10500000e+00	2.08072915e-03	8.61531096e-05
2.11000000e+00	2.05468134e-03	8.19495963e-05
2.11500000e+00	2.05071222e-03	8.09023369e-05
2.12000000e+00	2.02320967e-03	7.94690250e-05
2.12500000e+00	2.01399314e-03	7.88563328e-05
2.13000000e+00	1.99725405e-03	7.51047284e-05
2.13500000e+00	1.98996840e-03	7.38981848e-05
2.14000000e+00	1.96526921e-03	7.22847675e-05
2.14500000e+00	1.98472406e-03	7.32245330e-05
2.15000000e+00	1.96408603e-03	7.00650357e-05
2.15500000e+00	1.93322280e-03	6.90688999e-05
2.16000000e+00	1.93816653e-03	6.88566454e-05
2.16500000e+00	1.92844920e-03	6.90437145e-05
2.17000000e+00	1.91656478e-03	6.69917547e-05
2.17500000e+00	1.89847959e-03	6.65491196e-05
2.18000000e+00	1.90263418e-03	6.69588549e-05
2.18500000e+00	1.91384071e-03	6.76381459e-05
2.19000000e+00	1.86545421e-03	6.57193089e-05
2.19500000e+00	1.88452315e-03	6.59662806e-05
2.20000000e+00	1.87840615e-03	6.59459811e-05
2.20500000e+00	1.87371069e-03	6.60720416e-05
2.21000000e+00	1.85782341e-03	6.57615520e-05
2.21500000e+00	1.83353092e-03	6.42630866e-05
2.22000000e+00	1.84435400e-03	6.45535137e-05
2.22500000e+00	1.81352234e-03	6.40410723e-05
2.23000000e+00	1.80334876e-03	6.39977808e-05
2.23500000e+00	1.79422427e-03	6.27922948e-05
2.24000000e+00	1.78418927e-03	6.25355943e-05
2.24500000e+00	1.76603749e-03	6.22723872e-05
2.25000000e+00	1.76955189e-03	6.29194758e-05
2.25500000e+00	1.75025695e-03	6.11721157e-05
2.26000000e+00	1.74157286e-03	6.10402682e-05
2.26500000e+00	1.73812789e-03	6.11157653e-05
2.27000000e+00	1.71143770e-03	6.10358939e-05
2.27500000e+00	1.70567984e-03	5.96000233e-05
2.28000000e+00	1.69518469e-03	5.92818703e-05
2.28500000e+00	1.67497979e-03	5.89395166e-05
2.29000000e+00	1.66423110e-03	5.89358842e-05
2.29500000e+00	1.66324559e-03	5.87787383e-05
2.30000000e+00	1.66962522e-03	5.83725054e-05
2.30500000e+00	1.64923579e-03	5.78373596e-05
2.31000000e+00	1.63699925e-03	5.76596162e-05
2.31500000e+00	1.60550055e-03	5.70798062e-05
2.32000000e+00	1.61011495e-03	5.60601671e-05
2.32500000e+00	1.60177530e-03	5.62631071e-05
2.33000000e+00	1.58833277e-03	5.58744484e-05
2.33500000e+00	1.58115461e-03	5.61750235e-05
2.34000000e+00	1.55105019e-03	5.41787586e-05
2.34500000e+00	1.58339683e-03	5.52776901e-05
2.35000000e+00	1.55586363e-03	5.45645282e-05
2.35500000e+00	1.54681109e-03	5.49081098e-05
2.36000000e+00	1.53387357e-03	5.36651654e-05
2.36500000e+00	1.52732621e-03	5.33952975e-05
2.37000000e+00	1.51285852e-03	5.29868554e-05
2.37500000e+00	1.50702505e-03	5.32569282e-05
2.38000000e+00	1.46601604e-03	5.20639793e-05
2.38500000e+00	1.47761896e-03	5.17735456e-05
2.39000000e+00	1.46767217e-03	5.15740858e-05
2.39500000e+00	1.45853115e-03	5.14336367e-05
2.40000000e+00	1.44924092e-03	5.18250890e-05
2.40500000e+00	1.43801484e-03	5.03929455e-05
2.41000000e+00	1.43135589e-03	5.04470148e-05
2.41500000e+00	1.43263291e-03	5.04686283e-05
2.42000000e+00	1.41215832e-03	5.04408315e-05
2.42500000e+00	1.40884733e-03	5.02033736e-05
2.43000000e+00	1.40225755e-03	4.94493877e-05
2.43500000e+00	1.40924167e-03	4.99233388e-05
2.44000000e+00	1.39491103e-03	4.94397725e-05
2.44500000e+00	1.36650189e-03	4.91896065e-05
2.45000000e+00	1.36044046e-03	4.81026263e-05
2.45500000e+00	1.35901013e-03	4.81517287e-05
2.46000000e+00	1.34664414e-03	4.79263012e-05
2.46500000e+00	1.35078866e-03	4.85908610e-05
2.47000000e+00	1.34092249e-03	4.78144190e-05
2.47500000e+00	1.33125870e-03	4.71319293e-05
2.48000000e+00	1.33974530e-03	4.79007444e-05
2.48500000e+00	1.30066422e-03	4.64905441e-05
2.49000000e+00	1.30741601e-03	4.73765193e-05
2.49500000e+00	1.28359831e-03	4.57030271e-05
2.50000000e+00	1.30583572e-03	4.64686866e-05
2.50500000e+00	1.28381296e-03	4.60867888e-05
2.51000000e+00	1.27567461e-03	4.60470835e-05
2.51500000e+00	1.26951730e-03	4.59284095e-05
2.52000000e+00	1.25727279e-03	4.51486880e-05
2.52500000e+00	1.26001442e-03	4.53879130e-05
2.53000000e+00	1.25458951e-03	4.56498505e-05
2.53500000e+00	1.24412599e-03	4.56665008e-05
2.54000000e+00	1.22798971e-03	4.43856996e-05
2.54500000e+00	1.23468966e-03	4.49145238e-05
2.55000000e+00	1.20840417e-03	4.40840982e-05
2.55500000e+00	1.22692259e-03	4.51608924e-05
2.56000000e+00	1.22113542e-03	4.52262054e-05
2.56500000e+00	1.20342337e-03	4.40854543e-05
2.57000000e+00	1.18581892e-03	4.37371836e-05
2.57500000e+00	1.19562166e-03	4.41446485e-05
2.58000000e+00	1.18545821e-03	4.45560650e-05
2.58500000e+00	1.17257036e-03	4.37482270e-05
2.59000000e+00	1.16340361e-03	4.32472062e-05
2.59500000e+00	1.16962623e-03	4.35856592e-05
2.60000000e+00	1.16686848e-03	4.38263997e-05
2.60500000e+00	1.14316207e-03	4.38148607e-05
2.61000000e+00	1.14653699e-03	5.01845462e-05
2.61500000e+00	1.16323693e-03	5.62270646e-05
2.62000000e+00	1.14186036e-03	6.06384198e-05
2.62500000e+00	1.12891460e-03	6.51400017e-05
2.63000000e+00	1.13195270e-03	7.23479177e-05
2.63500000e+00	1.11771029e-03	7.93041781e-05
2.64000000e+00	1.11981525e-03	8.73654701e-05
2.64500000e+00	1.13422888e-03	9.40721472e-05
2.65000000e+00	1.11872526e-03	9.83673622e-05
2.65500000e+00	1.09631976e-03	1.04001905e-04
2.66000000e+00	1.07110208e-03	1.08661208e-04
2.66500000e+00	1.08848378e-03	1.23644490e-04
2.67000000e+00	1.06779915e-03	1.32429158e-04
2.67500000e+00	1.05899881e-03	1.53035255e-04
2.68000000e+00	1.06898719e-03	1.78810471e-04
2.68500000e+00	1.03974010e-03	2.30249172e-04
2.69000000e+00	1.14308107e-03	4.11938767e-04
2.69500000e+00	0.00000000e+00	0.00000000e+00
2.70000000e+00	0.00000000e+00	0.00000000e+00
