% Filename : WDL7c_00015_00014.h5
% Date & Time : 30-Oct-2025 16:14:49
% X-ray Energy (keV) : 13.30001
% Exposure Time (s) : 0.500
% Photodiode Value : 139642.000
% I0 of Sample : 0
% I0 of Standard : 1
% 
% q(A^-1)   I(q)    I(q)_SE
8.40000000e-01	0.00000000e+00	0.00000000e+00
8.45000000e-01	3.04436863e-03	5.34490370e-04
8.50000000e-01	2.85859766e-03	2.65222047e-04
8.55000000e-01	2.77219468e-03	2.26319437e-04
8.60000000e-01	2.76844191e-03	1.95957962e-04
8.65000000e-01	2.76586104e-03	1.80198040e-04
8.70000000e-01	2.77533394e-03	1.72428153e-04
8.75000000e-01	2.80032447e-03	1.67355615e-04
8.80000000e-01	2.76369336e-03	1.59992661e-04
8.85000000e-01	2.79304333e-03	1.52589602e-04
8.90000000e-01	2.81586060e-03	1.50570648e-04
8.95000000e-01	2.82255425e-03	1.46561321e-04
9.00000000e-01	2.84048116e-03	1.46204896e-04
9.05000000e-01	2.84411510e-03	1.39926043e-04
9.10000000e-01	2.82749329e-03	1.36478194e-04
9.15000000e-01	2.85023388e-03	1.35444562e-04
9.20000000e-01	2.86415548e-03	1.36110456e-04
9.25000000e-01	2.83507989e-03	1.28729952e-04
9.30000000e-01	2.87353075e-03	1.29278550e-04
9.35000000e-01	2.84872780e-03	1.25736479e-04
9.40000000e-01	2.85557554e-03	1.26305109e-04
9.45000000e-01	2.90190538e-03	1.25187941e-04
9.50000000e-01	2.88866205e-03	1.22925941e-04
9.55000000e-01	2.89210290e-03	1.20794888e-04
9.60000000e-01	2.89271823e-03	1.20898242e-04
9.65000000e-01	2.91145225e-03	1.19708018e-04
9.70000000e-01	2.90929848e-03	1.17539972e-04
9.75000000e-01	2.90609657e-03	1.16202046e-04
9.80000000e-01	2.91398106e-03	1.15491502e-04
9.85000000e-01	2.93131243e-03	1.16402644e-04
9.90000000e-01	2.94850940e-03	1.13399182e-04
9.95000000e-01	2.93749923e-03	1.12466056e-04
1.00000000e+00	2.93074714e-03	1.11669007e-04
1.00500000e+00	2.96465775e-03	1.13007480e-04
1.01000000e+00	2.94952532e-03	1.10075083e-04
1.01500000e+00	2.93248122e-03	1.08311665e-04
1.02000000e+00	2.93521408e-03	1.08444522e-04
1.02500000e+00	2.91198741e-03	1.06256781e-04
1.03000000e+00	2.96017633e-03	1.07701537e-04
1.03500000e+00	2.93655080e-03	1.05367461e-04
1.04000000e+00	2.94548526e-03	1.04965637e-04
1.04500000e+00	2.93146486e-03	1.04488748e-04
1.05000000e+00	2.93755808e-03	1.03977184e-04
1.05500000e+00	2.90790775e-03	1.01356661e-04
1.06000000e+00	2.92519308e-03	1.01777125e-04
1.06500000e+00	2.91060699e-03	1.01283953e-04
1.07000000e+00	2.93714562e-03	1.02059854e-04
1.07500000e+00	2.94297743e-03	1.01507392e-04
1.08000000e+00	2.95515081e-03	1.01261941e-04
1.08500000e+00	2.94603885e-03	1.01049306e-04
1.09000000e+00	2.98274011e-03	1.02922141e-04
1.09500000e+00	2.97783022e-03	1.00697958e-04
1.10000000e+00	2.98629439e-03	1.01664014e-04
1.10500000e+00	2.98899547e-03	1.02025086e-04
1.11000000e+00	2.98492550e-03	1.02019787e-04
1.11500000e+00	3.02339653e-03	1.02602576e-04
1.12000000e+00	3.00885277e-03	1.02561845e-04
1.12500000e+00	3.02596654e-03	1.02750354e-04
1.13000000e+00	3.02887914e-03	1.04181639e-04
1.13500000e+00	3.05352558e-03	1.03754619e-04
1.14000000e+00	3.06770958e-03	1.03995809e-04
1.14500000e+00	3.05975605e-03	1.04598115e-04
1.15000000e+00	3.05744935e-03	1.05180737e-04
1.15500000e+00	3.07294808e-03	1.04490878e-04
1.16000000e+00	3.09001930e-03	1.05402396e-04
1.16500000e+00	3.09700332e-03	1.05612660e-04
1.17000000e+00	3.09301092e-03	1.06744435e-04
1.17500000e+00	3.09701529e-03	1.05236949e-04
1.18000000e+00	3.08937623e-03	1.05639201e-04
1.18500000e+00	3.11446153e-03	1.06248756e-04
1.19000000e+00	3.12613465e-03	1.07809673e-04
1.19500000e+00	3.15041239e-03	1.07336094e-04
1.20000000e+00	3.13057693e-03	1.07248012e-04
1.20500000e+00	3.15427786e-03	1.07908319e-04
1.21000000e+00	3.14970750e-03	1.09101197e-04
1.21500000e+00	3.15130271e-03	1.07446058e-04
1.22000000e+00	3.17400536e-03	1.08324729e-04
1.22500000e+00	3.16394080e-03	1.08399114e-04
1.23000000e+00	3.17000874e-03	1.09437933e-04
1.23500000e+00	3.19497688e-03	1.09555457e-04
1.24000000e+00	3.20356394e-03	1.09258539e-04
1.24500000e+00	3.18928964e-03	1.09678830e-04
1.25000000e+00	3.19629869e-03	1.10509488e-04
1.25500000e+00	3.19203543e-03	1.09103855e-04
1.26000000e+00	3.20601024e-03	1.10233122e-04
1.26500000e+00	3.19536700e-03	1.09517233e-04
1.27000000e+00	3.22487494e-03	1.12068885e-04
1.27500000e+00	3.20231424e-03	1.10243647e-04
1.28000000e+00	3.22320193e-03	1.10185471e-04
1.28500000e+00	3.20870520e-03	1.10403570e-04
1.29000000e+00	3.22671757e-03	1.11921867e-04
1.29500000e+00	3.21505632e-03	1.10404123e-04
1.30000000e+00	3.23596999e-03	1.10893244e-04
1.30500000e+00	3.21996366e-03	1.10899215e-04
1.31000000e+00	3.24738811e-03	1.13055722e-04
1.31500000e+00	3.22714364e-03	1.11042802e-04
1.32000000e+00	3.23808045e-03	1.11248259e-04
1.32500000e+00	3.22712177e-03	1.11290292e-04
1.33000000e+00	3.24940477e-03	1.13367631e-04
1.33500000e+00	3.25705476e-03	1.11994756e-04
1.34000000e+00	3.24241685e-03	1.11657388e-04
1.34500000e+00	3.25220433e-03	1.12430138e-04
1.35000000e+00	3.24687383e-03	1.13204041e-04
1.35500000e+00	3.24069712e-03	1.11520120e-04
1.36000000e+00	3.22464875e-03	1.10768015e-04
1.36500000e+00	3.25478916e-03	1.12164140e-04
1.37000000e+00	3.23357826e-03	1.13105867e-04
1.37500000e+00	3.26320950e-03	1.12467957e-04
1.38000000e+00	3.23839955e-03	1.11840032e-04
1.38500000e+00	3.24605649e-03	1.12639958e-04
1.39000000e+00	3.22358401e-03	1.12609353e-04
1.39500000e+00	3.23499243e-03	1.11314477e-04
1.40000000e+00	3.27759420e-03	1.16299195e-04
1.40500000e+00	3.24929485e-03	1.23994629e-04
1.41000000e+00	3.21724001e-03	1.28608340e-04
1.41500000e+00	3.19691009e-03	1.32363509e-04
1.42000000e+00	3.17347860e-03	1.36686510e-04
1.42500000e+00	3.19050011e-03	1.41632853e-04
1.43000000e+00	3.12958110e-03	1.44171007e-04
1.43500000e+00	3.12993112e-03	1.48442928e-04
1.44000000e+00	3.14967184e-03	1.55099166e-04
1.44500000e+00	3.11777383e-03	1.57621146e-04
1.45000000e+00	3.22527569e-03	1.57746536e-04
1.45500000e+00	3.19314118e-03	1.40370936e-04
1.46000000e+00	3.23540357e-03	1.38783996e-04
1.46500000e+00	3.19364688e-03	1.34532860e-04
1.47000000e+00	3.22010980e-03	1.35403040e-04
1.47500000e+00	3.19889905e-03	1.30570720e-04
1.48000000e+00	3.21714462e-03	1.29873873e-04
1.48500000e+00	3.23332151e-03	1.30626892e-04
1.49000000e+00	3.19144365e-03	1.29333352e-04
1.49500000e+00	3.22648551e-03	1.27939137e-04
1.50000000e+00	3.24647763e-03	1.28245613e-04
1.50500000e+00	3.21682111e-03	1.27705907e-04
1.51000000e+00	3.24903000e-03	1.29349214e-04
1.51500000e+00	3.25507421e-03	1.27400606e-04
1.52000000e+00	3.28305782e-03	1.28091928e-04
1.52500000e+00	3.29005461e-03	1.28199653e-04
1.53000000e+00	3.26105189e-03	1.27961302e-04
1.53500000e+00	3.23558028e-03	1.23291030e-04
1.54000000e+00	3.23741766e-03	1.23138945e-04
1.54500000e+00	3.21732500e-03	1.22153084e-04
1.55000000e+00	3.20702346e-03	1.21327543e-04
1.55500000e+00	3.19599335e-03	1.18226090e-04
1.56000000e+00	3.18559420e-03	1.18100288e-04
1.56500000e+00	3.15990138e-03	1.16608931e-04
1.57000000e+00	3.14900965e-03	1.15388557e-04
1.57500000e+00	3.15284825e-03	1.13284628e-04
1.58000000e+00	3.13536646e-03	1.12571987e-04
1.58500000e+00	3.13696198e-03	1.12536269e-04
1.59000000e+00	3.12898755e-03	1.12288964e-04
1.59500000e+00	3.13425704e-03	1.10397377e-04
1.60000000e+00	3.13093765e-03	1.10278984e-04
1.60500000e+00	3.11366936e-03	1.09645232e-04
1.61000000e+00	3.10947122e-03	1.09012746e-04
1.61500000e+00	3.10368413e-03	1.07898422e-04
1.62000000e+00	3.06017063e-03	1.06751451e-04
1.62500000e+00	3.06545235e-03	1.08222536e-04
1.63000000e+00	3.09692942e-03	1.08114599e-04
1.63500000e+00	3.09423466e-03	1.08072018e-04
1.64000000e+00	3.05670597e-03	1.06794362e-04
1.64500000e+00	3.06805162e-03	1.08399008e-04
1.65000000e+00	3.03297421e-03	1.05911108e-04
1.65500000e+00	3.02471865e-03	1.05577018e-04
1.66000000e+00	3.06659008e-03	1.07120032e-04
1.66500000e+00	3.03666614e-03	1.07927323e-04
1.67000000e+00	3.01292161e-03	1.04933635e-04
1.67500000e+00	3.02842795e-03	1.05591733e-04
1.68000000e+00	3.01947944e-03	1.05627377e-04
1.68500000e+00	3.02048559e-03	1.07359527e-04
1.69000000e+00	3.01939739e-03	1.05303961e-04
1.69500000e+00	2.99985993e-03	1.04409000e-04
1.70000000e+00	2.96735023e-03	1.04480565e-04
1.70500000e+00	2.95753857e-03	1.04654589e-04
1.71000000e+00	2.98730979e-03	1.04280544e-04
1.71500000e+00	2.97172883e-03	1.03747844e-04
1.72000000e+00	2.95126009e-03	1.03841025e-04
1.72500000e+00	2.95678724e-03	1.04669724e-04
1.73000000e+00	2.95096566e-03	1.03023083e-04
1.73500000e+00	2.96174805e-03	1.03656193e-04
1.74000000e+00	2.96934729e-03	1.04214553e-04
1.74500000e+00	2.92014694e-03	1.03739267e-04
1.75000000e+00	2.92209995e-03	1.01771748e-04
1.75500000e+00	2.93947699e-03	1.03130597e-04
1.76000000e+00	2.90706434e-03	1.01864847e-04
1.76500000e+00	2.90612534e-03	1.03185574e-04
1.77000000e+00	2.89037067e-03	1.00842289e-04
1.77500000e+00	2.89258942e-03	1.01266659e-04
1.78000000e+00	2.88635995e-03	1.01336893e-04
1.78500000e+00	2.87153533e-03	1.01813988e-04
1.79000000e+00	2.89760248e-03	1.01053433e-04
1.79500000e+00	2.86200412e-03	1.00121564e-04
1.80000000e+00	2.86733144e-03	1.00944517e-04
1.80500000e+00	2.85665192e-03	1.01150447e-04
1.81000000e+00	2.83552922e-03	9.89274859e-05
1.81500000e+00	2.81438705e-03	9.82711759e-05
1.82000000e+00	2.82197230e-03	9.92322346e-05
1.82500000e+00	2.81711292e-03	9.96765150e-05
1.83000000e+00	2.82044713e-03	9.85518042e-05
1.83500000e+00	2.81933088e-03	9.86482812e-05
1.84000000e+00	2.80397225e-03	9.86228771e-05
1.84500000e+00	2.76184212e-03	9.77477863e-05
1.85000000e+00	2.80404610e-03	9.81008145e-05
1.85500000e+00	2.79023621e-03	9.76452163e-05
1.86000000e+00	2.76765728e-03	9.75378919e-05
1.86500000e+00	2.76018370e-03	9.74295731e-05
1.87000000e+00	2.75613457e-03	9.63207156e-05
1.87500000e+00	2.74154188e-03	9.61314535e-05
1.88000000e+00	2.74302851e-03	9.65513537e-05
1.88500000e+00	2.74477229e-03	9.71807964e-05
1.89000000e+00	2.72160896e-03	9.50812088e-05
1.89500000e+00	2.73184584e-03	9.59097322e-05
1.90000000e+00	2.70111944e-03	9.51160953e-05
1.90500000e+00	2.68831158e-03	9.48296529e-05
1.91000000e+00	2.68107681e-03	9.38127374e-05
1.91500000e+00	2.68699931e-03	9.40759016e-05
1.92000000e+00	2.68797889e-03	9.47174070e-05
1.92500000e+00	2.66336282e-03	9.38375208e-05
1.93000000e+00	2.64990814e-03	9.25583780e-05
1.93500000e+00	2.65161018e-03	9.29068528e-05
1.94000000e+00	2.63587399e-03	9.31330980e-05
1.94500000e+00	2.60440921e-03	9.17280600e-05
1.95000000e+00	2.61520838e-03	9.12928780e-05
1.95500000e+00	2.59961065e-03	9.10865901e-05
1.96000000e+00	2.59502976e-03	9.15645064e-05
1.96500000e+00	2.59582138e-03	9.16879849e-05
1.97000000e+00	2.58559907e-03	9.01582307e-05
1.97500000e+00	2.58398666e-03	9.06764475e-05
1.98000000e+00	2.56198578e-03	9.03280426e-05
1.98500000e+00	2.55555071e-03	9.02600659e-05
1.99000000e+00	2.55338319e-03	8.90603422e-05
1.99500000e+00	2.54562487e-03	8.92476727e-05
2.00000000e+00	2.53626144e-03	8.93762769e-05
2.00500000e+00	2.55034653e-03	9.01169866e-05
2.01000000e+00	2.54401310e-03	9.86800147e-05
2.01500000e+00	2.50243224e-03	1.03084783e-04
2.02000000e+00	2.48102535e-03	1.08923577e-04
2.02500000e+00	2.46352039e-03	1.12379652e-04
2.03000000e+00	2.44513513e-03	1.18249850e-04
2.03500000e+00	2.43723491e-03	1.22906893e-04
2.04000000e+00	2.42526556e-03	1.27931436e-04
2.04500000e+00	2.43711185e-03	1.35368774e-04
2.05000000e+00	2.42323528e-03	1.41390492e-04
2.05500000e+00	2.40154060e-03	1.37048675e-04
2.06000000e+00	2.45120712e-03	1.21944150e-04
2.06500000e+00	2.43048268e-03	1.15517631e-04
2.07000000e+00	2.42619167e-03	1.08971697e-04
2.07500000e+00	2.40200829e-03	1.05636022e-04
2.08000000e+00	2.43199365e-03	1.06652923e-04
2.08500000e+00	2.42370834e-03	1.05419225e-04
2.09000000e+00	2.40629918e-03	1.01472504e-04
2.09500000e+00	2.38624814e-03	9.95902560e-05
2.10000000e+00	2.39461277e-03	9.93400451e-05
2.10500000e+00	2.39641152e-03	9.89865392e-05
2.11000000e+00	2.36567855e-03	9.42698571e-05
2.11500000e+00	2.34941210e-03	9.26789464e-05
2.12000000e+00	2.34922809e-03	9.21158009e-05
2.12500000e+00	2.30572911e-03	9.02612168e-05
2.13000000e+00	2.28437155e-03	8.57140656e-05
2.13500000e+00	2.27848230e-03	8.44815543e-05
2.14000000e+00	2.31048731e-03	8.48467962e-05
2.14500000e+00	2.25495051e-03	8.31398340e-05
2.15000000e+00	2.25603509e-03	8.03409794e-05
2.15500000e+00	2.26502082e-03	8.07660006e-05
2.16000000e+00	2.23389703e-03	7.93194474e-05
2.16500000e+00	2.23317107e-03	7.98767522e-05
2.17000000e+00	2.21994117e-03	7.74862807e-05
2.17500000e+00	2.20033782e-03	7.69395498e-05
2.18000000e+00	2.17616945e-03	7.64115334e-05
2.18500000e+00	2.17949286e-03	7.67734640e-05
2.19000000e+00	2.16838188e-03	7.62047193e-05
2.19500000e+00	2.15792190e-03	7.55405405e-05
2.20000000e+00	2.15532210e-03	7.55663909e-05
2.20500000e+00	2.14462024e-03	7.54395046e-05
2.21000000e+00	2.13586579e-03	7.55045134e-05
2.21500000e+00	2.11422955e-03	7.39395015e-05
2.22000000e+00	2.11753945e-03	7.39179218e-05
2.22500000e+00	2.08617150e-03	7.34491061e-05
2.23000000e+00	2.08047278e-03	7.37065565e-05
2.23500000e+00	2.09107351e-03	7.30057248e-05
2.24000000e+00	2.06671515e-03	7.21970790e-05
2.24500000e+00	2.03495810e-03	7.15271435e-05
2.25000000e+00	2.03169079e-03	7.20931214e-05
2.25500000e+00	2.01029488e-03	7.00544024e-05
2.26000000e+00	2.01240297e-03	7.03352136e-05
2.26500000e+00	1.99969535e-03	7.01787821e-05
2.27000000e+00	1.98527809e-03	7.06492414e-05
2.27500000e+00	1.98543434e-03	6.92666056e-05
2.28000000e+00	1.96283139e-03	6.85417904e-05
2.28500000e+00	1.93064326e-03	6.77529126e-05
2.29000000e+00	1.92981343e-03	6.81880659e-05
2.29500000e+00	1.93411251e-03	6.80741413e-05
2.30000000e+00	1.92049328e-03	6.69461164e-05
2.30500000e+00	1.88706883e-03	6.59847354e-05
2.31000000e+00	1.88517270e-03	6.62672898e-05
2.31500000e+00	1.87449603e-03	6.64625930e-05
2.32000000e+00	1.86844903e-03	6.48194322e-05
2.32500000e+00	1.85519118e-03	6.49112086e-05
2.33000000e+00	1.84992408e-03	6.48988011e-05
2.33500000e+00	1.83855333e-03	6.51651385e-05
2.34000000e+00	1.82622638e-03	6.36820948e-05
2.34500000e+00	1.80700472e-03	6.29709259e-05
2.35000000e+00	1.81515805e-03	6.34821073e-05
2.35500000e+00	1.79252404e-03	6.35396624e-05
2.36000000e+00	1.76933912e-03	6.19227527e-05
2.36500000e+00	1.77129572e-03	6.18548279e-05
2.37000000e+00	1.75893387e-03	6.15081782e-05
2.37500000e+00	1.74376801e-03	6.14652819e-05
2.38000000e+00	1.74336976e-03	6.17471318e-05
2.38500000e+00	1.71519811e-03	5.98364678e-05
2.39000000e+00	1.72169251e-03	6.03770598e-05
2.39500000e+00	1.70280501e-03	5.99840334e-05
2.40000000e+00	1.70246407e-03	6.08363137e-05
2.40500000e+00	1.69180829e-03	5.92740447e-05
2.41000000e+00	1.67733448e-03	5.89825735e-05
2.41500000e+00	1.67185146e-03	5.88184149e-05
2.42000000e+00	1.65687843e-03	5.90555697e-05
2.42500000e+00	1.64236157e-03	5.84374686e-05
2.43000000e+00	1.62887026e-03	5.73375190e-05
2.43500000e+00	1.63307572e-03	5.77964765e-05
2.44000000e+00	1.62210542e-03	5.74147034e-05
2.44500000e+00	1.61613794e-03	5.80410823e-05
2.45000000e+00	1.59984860e-03	5.64768394e-05
2.45500000e+00	1.59144987e-03	5.62945780e-05
2.46000000e+00	1.58502494e-03	5.62624465e-05
2.46500000e+00	1.56517717e-03	5.63505824e-05
2.47000000e+00	1.55689973e-03	5.54577557e-05
2.47500000e+00	1.55859745e-03	5.51773379e-05
2.48000000e+00	1.54317463e-03	5.51267815e-05
2.48500000e+00	1.52380014e-03	5.44059875e-05
2.49000000e+00	1.53460690e-03	5.56392481e-05
2.49500000e+00	1.52682656e-03	5.42602757e-05
2.50000000e+00	1.52445290e-03	5.42574281e-05
2.50500000e+00	1.51194264e-03	5.40911971e-05
2.51000000e+00	1.48502623e-03	5.35148272e-05
2.51500000e+00	1.48525327e-03	5.36780208e-05
2.52000000e+00	1.48944717e-03	5.33066222e-05
2.52500000e+00	1.46803505e-03	5.28164410e-05
2.53000000e+00	1.47145812e-03	5.34647980e-05
2.53500000e+00	1.46554086e-03	5.38235830e-05
2.54000000e+00	1.43480608e-03	5.18733291e-05
2.54500000e+00	1.44397860e-03	5.24209717e-05
2.55000000e+00	1.43120468e-03	5.22347146e-05
2.55500000e+00	1.42769834e-03	5.25212841e-05
2.56000000e+00	1.41746951e-03	5.24090972e-05
2.56500000e+00	1.43446831e-03	5.25044850e-05
2.57000000e+00	1.41143914e-03	5.19260984e-05
2.57500000e+00	1.38850991e-03	5.12542392e-05
2.58000000e+00	1.39601179e-03	5.24230938e-05
2.58500000e+00	1.38438613e-03	5.15722209e-05
2.59000000e+00	1.37424478e-03	5.09845850e-05
2.59500000e+00	1.35815561e-03	5.05976679e-05
2.60000000e+00	1.35920428e-03	5.10304705e-05
2.60500000e+00	1.37476091e-03	5.27625543e-05
2.61000000e+00	1.37164819e-03	6.00152310e-05
2.61500000e+00	1.35345069e-03	6.54665168e-05
2.62000000e+00	1.30866763e-03	6.98530376e-05
2.62500000e+00	1.32488661e-03	7.63680196e-05
2.63000000e+00	1.33568752e-03	8.48876610e-05
2.63500000e+00	1.32791460e-03	9.34402777e-05
2.64000000e+00	1.34140184e-03	1.04092893e-04
2.64500000e+00	1.33856052e-03	1.10880786e-04
2.65000000e+00	1.31160232e-03	1.15030984e-04
2.65500000e+00	1.32963263e-03	1.25367058e-04
2.66000000e+00	1.33528686e-03	1.34978885e-04
2.66500000e+00	1.35082321e-03	1.53046869e-04
2.67000000e+00	1.29316833e-03	1.59473962e-04
2.67500000e+00	1.33775482e-03	1.93254652e-04
2.68000000e+00	1.29839169e-03	2.16446645e-04
2.68500000e+00	1.11177038e-03	2.48427731e-04
2.69000000e+00	1.07108719e-03	3.82849582e-04
2.69500000e+00	0.00000000e+00	0.00000000e+00
2.70000000e+00	0.00000000e+00	0.00000000e+00
