% Filename : WDL7_00012_00147.h5
% Date & Time : 30-Oct-2025 14:54:58
% X-ray Energy (keV) : 13.30001
% Exposure Time (s) : 0.500
% Photodiode Value : 135851.000
% I0 of Sample : 0
% I0 of Standard : 1
% 
% q(A^-1)   I(q)    I(q)_SE
8.40000000e-01	0.00000000e+00	0.00000000e+00
8.45000000e-01	2.81551165e-03	4.93358562e-04
8.50000000e-01	2.66491096e-03	2.47457626e-04
8.55000000e-01	2.63103291e-03	2.14988025e-04
8.60000000e-01	2.59704169e-03	1.83782724e-04
8.65000000e-01	2.59912498e-03	1.69430762e-04
8.70000000e-01	2.63363582e-03	1.63755197e-04
8.75000000e-01	2.61376117e-03	1.56159000e-04
8.80000000e-01	2.61623201e-03	1.51220081e-04
8.85000000e-01	2.64822021e-03	1.44723790e-04
8.90000000e-01	2.61922813e-03	1.40113044e-04
8.95000000e-01	2.65852303e-03	1.38103472e-04
9.00000000e-01	2.63039918e-03	1.35507051e-04
9.05000000e-01	2.65934964e-03	1.30962625e-04
9.10000000e-01	2.68836636e-03	1.29910500e-04
9.15000000e-01	2.64958844e-03	1.26115132e-04
9.20000000e-01	2.67796499e-03	1.27216672e-04
9.25000000e-01	2.68768350e-03	1.22121442e-04
9.30000000e-01	2.70853858e-03	1.21889479e-04
9.35000000e-01	2.72062412e-03	1.20115672e-04
9.40000000e-01	2.71133354e-03	1.20200326e-04
9.45000000e-01	2.70380199e-03	1.16713993e-04
9.50000000e-01	2.71579673e-03	1.15445043e-04
9.55000000e-01	2.73060108e-03	1.14120138e-04
9.60000000e-01	2.71970803e-03	1.13685474e-04
9.65000000e-01	2.74865077e-03	1.13156289e-04
9.70000000e-01	2.73991041e-03	1.10900331e-04
9.75000000e-01	2.74068623e-03	1.09601778e-04
9.80000000e-01	2.72698072e-03	1.08181359e-04
9.85000000e-01	2.74783376e-03	1.09151268e-04
9.90000000e-01	2.71569714e-03	1.04530712e-04
9.95000000e-01	2.73056157e-03	1.04611848e-04
1.00000000e+00	2.74280545e-03	1.04656002e-04
1.00500000e+00	2.72821564e-03	1.04060509e-04
1.01000000e+00	2.74412409e-03	1.02480924e-04
1.01500000e+00	2.74399447e-03	1.01494686e-04
1.02000000e+00	2.74121147e-03	1.01376015e-04
1.02500000e+00	2.73642023e-03	9.99221763e-05
1.03000000e+00	2.74096772e-03	9.97825473e-05
1.03500000e+00	2.69415572e-03	9.68149013e-05
1.04000000e+00	2.70954807e-03	9.67366647e-05
1.04500000e+00	2.70025790e-03	9.64160009e-05
1.05000000e+00	2.71836244e-03	9.64552922e-05
1.05500000e+00	2.69504844e-03	9.40386986e-05
1.06000000e+00	2.70453641e-03	9.42969313e-05
1.06500000e+00	2.73663578e-03	9.53647560e-05
1.07000000e+00	2.70741613e-03	9.42657129e-05
1.07500000e+00	2.73748896e-03	9.46762033e-05
1.08000000e+00	2.71300313e-03	9.32530786e-05
1.08500000e+00	2.75076141e-03	9.46959598e-05
1.09000000e+00	2.73638817e-03	9.46216923e-05
1.09500000e+00	2.73306155e-03	9.25689699e-05
1.10000000e+00	2.73788005e-03	9.33571050e-05
1.10500000e+00	2.75256032e-03	9.42173477e-05
1.11000000e+00	2.75930662e-03	9.45577813e-05
1.11500000e+00	2.77080781e-03	9.42888704e-05
1.12000000e+00	2.78531059e-03	9.51157029e-05
1.12500000e+00	2.77060671e-03	9.43758672e-05
1.13000000e+00	2.78756428e-03	9.61047959e-05
1.13500000e+00	2.79615182e-03	9.51677823e-05
1.14000000e+00	2.81261563e-03	9.55772123e-05
1.14500000e+00	2.81527923e-03	9.64168437e-05
1.15000000e+00	2.80670005e-03	9.66180202e-05
1.15500000e+00	2.81826125e-03	9.60125178e-05
1.16000000e+00	2.84912425e-03	9.74091213e-05
1.16500000e+00	2.83333267e-03	9.67633106e-05
1.17000000e+00	2.82578599e-03	9.76531899e-05
1.17500000e+00	2.86642863e-03	9.76839663e-05
1.18000000e+00	2.85576729e-03	9.77804662e-05
1.18500000e+00	2.85605273e-03	9.77081845e-05
1.19000000e+00	2.86039732e-03	9.88341092e-05
1.19500000e+00	2.86928705e-03	9.79303968e-05
1.20000000e+00	2.87672019e-03	9.86804303e-05
1.20500000e+00	2.89789223e-03	9.91638665e-05
1.21000000e+00	2.88668805e-03	1.00127026e-04
1.21500000e+00	2.88542802e-03	9.85083716e-05
1.22000000e+00	2.88972315e-03	9.87425643e-05
1.22500000e+00	2.88732102e-03	9.90612129e-05
1.23000000e+00	2.88656202e-03	9.98305593e-05
1.23500000e+00	2.89905353e-03	9.96211689e-05
1.24000000e+00	2.88838074e-03	9.87094811e-05
1.24500000e+00	2.89113469e-03	9.95721676e-05
1.25000000e+00	2.89857010e-03	1.00430647e-04
1.25500000e+00	2.90176923e-03	9.92923555e-05
1.26000000e+00	2.91695063e-03	1.00423619e-04
1.26500000e+00	2.91592570e-03	1.00009871e-04
1.27000000e+00	2.93612886e-03	1.02319575e-04
1.27500000e+00	2.90779136e-03	1.00229071e-04
1.28000000e+00	2.89950696e-03	9.93109984e-05
1.28500000e+00	2.92216338e-03	1.00673993e-04
1.29000000e+00	2.90597609e-03	1.00975869e-04
1.29500000e+00	2.90233984e-03	9.97223949e-05
1.30000000e+00	2.92159626e-03	1.00194694e-04
1.30500000e+00	2.91745880e-03	1.00533329e-04
1.31000000e+00	2.89726311e-03	1.01059293e-04
1.31500000e+00	2.92693082e-03	1.00843329e-04
1.32000000e+00	2.91481265e-03	1.00310805e-04
1.32500000e+00	2.91468214e-03	1.00538717e-04
1.33000000e+00	2.90008698e-03	1.01266929e-04
1.33500000e+00	2.88690168e-03	9.94438060e-05
1.34000000e+00	2.91886280e-03	1.00671807e-04
1.34500000e+00	2.90740280e-03	1.00635220e-04
1.35000000e+00	2.87634928e-03	1.00486403e-04
1.35500000e+00	2.91007570e-03	1.00322970e-04
1.36000000e+00	2.91463583e-03	1.00242779e-04
1.36500000e+00	2.90565057e-03	1.00291034e-04
1.37000000e+00	2.89589101e-03	1.01524057e-04
1.37500000e+00	2.92068196e-03	1.00806290e-04
1.38000000e+00	2.89879489e-03	1.00223803e-04
1.38500000e+00	2.92016819e-03	1.01573711e-04
1.39000000e+00	2.90139354e-03	1.01434871e-04
1.39500000e+00	2.91653084e-03	1.00504763e-04
1.40000000e+00	2.94343258e-03	1.04571829e-04
1.40500000e+00	2.88089252e-03	1.10173880e-04
1.41000000e+00	2.86719016e-03	1.14887999e-04
1.41500000e+00	2.83244744e-03	1.17530650e-04
1.42000000e+00	2.79852425e-03	1.20808995e-04
1.42500000e+00	2.79459946e-03	1.24093588e-04
1.43000000e+00	2.81071111e-03	1.29640772e-04
1.43500000e+00	2.78913084e-03	1.32802732e-04
1.44000000e+00	2.77472441e-03	1.37142625e-04
1.44500000e+00	2.74386630e-03	1.39174544e-04
1.45000000e+00	2.85047830e-03	1.39816127e-04
1.45500000e+00	2.85434841e-03	1.25582526e-04
1.46000000e+00	2.83515196e-03	1.21821860e-04
1.46500000e+00	2.83647168e-03	1.19704701e-04
1.47000000e+00	2.82909702e-03	1.19283457e-04
1.47500000e+00	2.85405425e-03	1.16701113e-04
1.48000000e+00	2.87426934e-03	1.16254927e-04
1.48500000e+00	2.85208329e-03	1.15523120e-04
1.49000000e+00	2.84077938e-03	1.15269512e-04
1.49500000e+00	2.85150410e-03	1.13098809e-04
1.50000000e+00	2.86234885e-03	1.13185123e-04
1.50500000e+00	2.83727720e-03	1.12758101e-04
1.51000000e+00	2.86420185e-03	1.14168526e-04
1.51500000e+00	2.85923328e-03	1.11930627e-04
1.52000000e+00	2.86192572e-03	1.11790565e-04
1.52500000e+00	2.87199716e-03	1.11948197e-04
1.53000000e+00	2.87240343e-03	1.12690518e-04
1.53500000e+00	2.86332520e-03	1.09081556e-04
1.54000000e+00	2.86289816e-03	1.09011119e-04
1.54500000e+00	2.84947796e-03	1.08257479e-04
1.55000000e+00	2.82759177e-03	1.07097279e-04
1.55500000e+00	2.82816458e-03	1.04749364e-04
1.56000000e+00	2.80253628e-03	1.04017576e-04
1.56500000e+00	2.80356231e-03	1.03512994e-04
1.57000000e+00	2.77391717e-03	1.01735338e-04
1.57500000e+00	2.78771132e-03	1.00289193e-04
1.58000000e+00	2.78099796e-03	9.99839413e-05
1.58500000e+00	2.76906863e-03	9.94690586e-05
1.59000000e+00	2.75582823e-03	9.90587237e-05
1.59500000e+00	2.75544180e-03	9.72066650e-05
1.60000000e+00	2.72893355e-03	9.61725288e-05
1.60500000e+00	2.76469318e-03	9.74295031e-05
1.61000000e+00	2.73249638e-03	9.59705858e-05
1.61500000e+00	2.70840765e-03	9.41617695e-05
1.62000000e+00	2.72258352e-03	9.51016680e-05
1.62500000e+00	2.71638547e-03	9.59736274e-05
1.63000000e+00	2.70572766e-03	9.45572825e-05
1.63500000e+00	2.69133951e-03	9.41536739e-05
1.64000000e+00	2.72209581e-03	9.52328309e-05
1.64500000e+00	2.68946693e-03	9.50756979e-05
1.65000000e+00	2.68812733e-03	9.40016599e-05
1.65500000e+00	2.68011682e-03	9.36191125e-05
1.66000000e+00	2.67177806e-03	9.34810603e-05
1.66500000e+00	2.64110106e-03	9.39532258e-05
1.67000000e+00	2.64610887e-03	9.21435263e-05
1.67500000e+00	2.65645898e-03	9.28459294e-05
1.68000000e+00	2.64142036e-03	9.25474996e-05
1.68500000e+00	2.63180474e-03	9.37411308e-05
1.69000000e+00	2.62827643e-03	9.17307848e-05
1.69500000e+00	2.63584761e-03	9.18812268e-05
1.70000000e+00	2.63843884e-03	9.29926169e-05
1.70500000e+00	2.61299213e-03	9.25612964e-05
1.71000000e+00	2.61265346e-03	9.12852755e-05
1.71500000e+00	2.59231812e-03	9.05710325e-05
1.72000000e+00	2.59947007e-03	9.15363199e-05
1.72500000e+00	2.59233564e-03	9.18918951e-05
1.73000000e+00	2.59284518e-03	9.05918904e-05
1.73500000e+00	2.57875738e-03	9.04211804e-05
1.74000000e+00	2.59009975e-03	9.10117651e-05
1.74500000e+00	2.57822598e-03	9.16817037e-05
1.75000000e+00	2.55007663e-03	8.89810815e-05
1.75500000e+00	2.58094206e-03	9.06218393e-05
1.76000000e+00	2.54789159e-03	8.93758676e-05
1.76500000e+00	2.57042393e-03	9.13192867e-05
1.77000000e+00	2.55235633e-03	8.91933771e-05
1.77500000e+00	2.54405875e-03	8.91386615e-05
1.78000000e+00	2.53668799e-03	8.91658982e-05
1.78500000e+00	2.52537584e-03	8.97759026e-05
1.79000000e+00	2.52305880e-03	8.81155378e-05
1.79500000e+00	2.48930766e-03	8.72094071e-05
1.80000000e+00	2.48094645e-03	8.74435296e-05
1.80500000e+00	2.49124879e-03	8.83633400e-05
1.81000000e+00	2.50266103e-03	8.74477058e-05
1.81500000e+00	2.47146479e-03	8.64851674e-05
1.82000000e+00	2.47324083e-03	8.70785188e-05
1.82500000e+00	2.45665283e-03	8.70919933e-05
1.83000000e+00	2.45860484e-03	8.60042258e-05
1.83500000e+00	2.46118685e-03	8.62641052e-05
1.84000000e+00	2.44244395e-03	8.61238918e-05
1.84500000e+00	2.43382563e-03	8.61705584e-05
1.85000000e+00	2.43289629e-03	8.52030637e-05
1.85500000e+00	2.43116514e-03	8.52263000e-05
1.86000000e+00	2.40828673e-03	8.49069179e-05
1.86500000e+00	2.40532655e-03	8.51251651e-05
1.87000000e+00	2.41159009e-03	8.43836323e-05
1.87500000e+00	2.39709577e-03	8.41846147e-05
1.88000000e+00	2.38596105e-03	8.40742509e-05
1.88500000e+00	2.36484732e-03	8.38932429e-05
1.89000000e+00	2.35973910e-03	8.25345341e-05
1.89500000e+00	2.36473633e-03	8.31480780e-05
1.90000000e+00	2.36689965e-03	8.34571697e-05
1.90500000e+00	2.34417596e-03	8.27243241e-05
1.91000000e+00	2.35195117e-03	8.24809710e-05
1.91500000e+00	2.33501729e-03	8.19868504e-05
1.92000000e+00	2.34183888e-03	8.25796550e-05
1.92500000e+00	2.31849022e-03	8.18954638e-05
1.93000000e+00	2.31319408e-03	8.10056626e-05
1.93500000e+00	2.30371233e-03	8.08768361e-05
1.94000000e+00	2.31559785e-03	8.19361345e-05
1.94500000e+00	2.28361125e-03	8.05758978e-05
1.95000000e+00	2.29651739e-03	8.01962639e-05
1.95500000e+00	2.29077302e-03	8.04076142e-05
1.96000000e+00	2.27506810e-03	8.04479433e-05
1.96500000e+00	2.26786411e-03	8.01209497e-05
1.97000000e+00	2.24883793e-03	7.85338633e-05
1.97500000e+00	2.26408503e-03	7.95631493e-05
1.98000000e+00	2.25915849e-03	7.98000346e-05
1.98500000e+00	2.24036733e-03	7.92437965e-05
1.99000000e+00	2.22627324e-03	7.77373144e-05
1.99500000e+00	2.22033117e-03	7.79034465e-05
2.00000000e+00	2.21970574e-03	7.84613726e-05
2.00500000e+00	2.23126330e-03	7.90108941e-05
2.01000000e+00	2.22028888e-03	8.63445232e-05
2.01500000e+00	2.20336409e-03	9.09105655e-05
2.02000000e+00	2.17407315e-03	9.56231472e-05
2.02500000e+00	2.14698474e-03	9.82935800e-05
2.03000000e+00	2.13797370e-03	1.03774476e-04
2.03500000e+00	2.13474659e-03	1.08037332e-04
2.04000000e+00	2.11848218e-03	1.12191150e-04
2.04500000e+00	2.13047111e-03	1.18609249e-04
2.05000000e+00	2.08264259e-03	1.21774153e-04
2.05500000e+00	2.10433506e-03	1.20518695e-04
2.06000000e+00	2.13347540e-03	1.06217751e-04
2.06500000e+00	2.09885472e-03	9.98771625e-05
2.07000000e+00	2.10979264e-03	9.50809217e-05
2.07500000e+00	2.10221354e-03	9.26279425e-05
2.08000000e+00	2.10266477e-03	9.23361228e-05
2.08500000e+00	2.11008130e-03	9.19702120e-05
2.09000000e+00	2.10853320e-03	8.92081090e-05
2.09500000e+00	2.10301058e-03	8.78967766e-05
2.10000000e+00	2.09987023e-03	8.71604165e-05
2.10500000e+00	2.08851653e-03	8.64216029e-05
2.11000000e+00	2.08593050e-03	8.31529822e-05
2.11500000e+00	2.06353854e-03	8.14664491e-05
2.12000000e+00	2.03686184e-03	8.00462291e-05
2.12500000e+00	2.01482553e-03	7.89837629e-05
2.13000000e+00	2.02993643e-03	7.63414249e-05
2.13500000e+00	1.98883104e-03	7.38048449e-05
2.14000000e+00	1.98202154e-03	7.29784740e-05
2.14500000e+00	1.96232948e-03	7.24004547e-05
2.15000000e+00	1.97726271e-03	7.04996730e-05
2.15500000e+00	1.94798801e-03	6.96883654e-05
2.16000000e+00	1.94010490e-03	6.90421063e-05
2.16500000e+00	1.92518495e-03	6.89870244e-05
2.17000000e+00	1.91221043e-03	6.68828886e-05
2.17500000e+00	1.93234370e-03	6.77003404e-05
2.18000000e+00	1.91942342e-03	6.74689970e-05
2.18500000e+00	1.91315569e-03	6.75422999e-05
2.19000000e+00	1.88861913e-03	6.64603620e-05
2.19500000e+00	1.87864789e-03	6.58367245e-05
2.20000000e+00	1.87526829e-03	6.57761949e-05
2.20500000e+00	1.85568170e-03	6.53899430e-05
2.21000000e+00	1.84921171e-03	6.55228153e-05
2.21500000e+00	1.84188003e-03	6.44745770e-05
2.22000000e+00	1.83028489e-03	6.40341908e-05
2.22500000e+00	1.80579620e-03	6.37681149e-05
2.23000000e+00	1.81524365e-03	6.44090131e-05
2.23500000e+00	1.79905093e-03	6.30426669e-05
2.24000000e+00	1.77747454e-03	6.22911038e-05
2.24500000e+00	1.79233542e-03	6.31593961e-05
2.25000000e+00	1.76612446e-03	6.28073327e-05
2.25500000e+00	1.75988232e-03	6.14875582e-05
2.26000000e+00	1.74584901e-03	6.12130639e-05
2.26500000e+00	1.73216644e-03	6.09084078e-05
2.27000000e+00	1.73016518e-03	6.17284707e-05
2.27500000e+00	1.71652653e-03	5.99926180e-05
2.28000000e+00	1.69697058e-03	5.93626185e-05
2.28500000e+00	1.70318979e-03	5.99357817e-05
2.29000000e+00	1.67433605e-03	5.92879230e-05
2.29500000e+00	1.65743522e-03	5.85355609e-05
2.30000000e+00	1.64555481e-03	5.75062146e-05
2.30500000e+00	1.63887113e-03	5.74231648e-05
2.31000000e+00	1.64077213e-03	5.78463287e-05
2.31500000e+00	1.61450642e-03	5.73336715e-05
2.32000000e+00	1.61083412e-03	5.60897204e-05
2.32500000e+00	1.61379761e-03	5.66991691e-05
2.33000000e+00	1.59500718e-03	5.61099307e-05
2.33500000e+00	1.58223527e-03	5.62463882e-05
2.34000000e+00	1.57004106e-03	5.47865440e-05
2.34500000e+00	1.55455488e-03	5.43005947e-05
2.35000000e+00	1.55772844e-03	5.46705775e-05
2.35500000e+00	1.54525407e-03	5.48928881e-05
2.36000000e+00	1.51285048e-03	5.30297035e-05
2.36500000e+00	1.50992872e-03	5.28063227e-05
2.37000000e+00	1.50625374e-03	5.27211672e-05
2.37500000e+00	1.49549803e-03	5.28087602e-05
2.38000000e+00	1.49682061e-03	5.31547210e-05
2.38500000e+00	1.48383169e-03	5.18258978e-05
2.39000000e+00	1.47028455e-03	5.15362788e-05
2.39500000e+00	1.46872888e-03	5.18099914e-05
2.40000000e+00	1.44246810e-03	5.16392443e-05
2.40500000e+00	1.45674554e-03	5.10483951e-05
2.41000000e+00	1.44244852e-03	5.07673652e-05
2.41500000e+00	1.43216040e-03	5.03860971e-05
2.42000000e+00	1.40956226e-03	5.03342974e-05
2.42500000e+00	1.39641429e-03	4.98461950e-05
2.43000000e+00	1.40370802e-03	4.95734342e-05
2.43500000e+00	1.39942374e-03	4.95405135e-05
2.44000000e+00	1.37578793e-03	4.87982758e-05
2.44500000e+00	1.37576167e-03	4.94435697e-05
2.45000000e+00	1.38214358e-03	4.88301450e-05
2.45500000e+00	1.34519527e-03	4.77147645e-05
2.46000000e+00	1.34776836e-03	4.79508371e-05
2.46500000e+00	1.34985737e-03	4.86295606e-05
2.47000000e+00	1.32924601e-03	4.73523773e-05
2.47500000e+00	1.32472989e-03	4.69015177e-05
2.48000000e+00	1.32227816e-03	4.73007026e-05
2.48500000e+00	1.31126619e-03	4.69113559e-05
2.49000000e+00	1.30296151e-03	4.71808032e-05
2.49500000e+00	1.28823318e-03	4.57653997e-05
2.50000000e+00	1.29016048e-03	4.59847992e-05
2.50500000e+00	1.29453181e-03	4.63850685e-05
2.51000000e+00	1.27989702e-03	4.61306596e-05
2.51500000e+00	1.27411859e-03	4.60287355e-05
2.52000000e+00	1.25594770e-03	4.50338136e-05
2.52500000e+00	1.24787249e-03	4.49438314e-05
2.53000000e+00	1.24853321e-03	4.53698541e-05
2.53500000e+00	1.22989732e-03	4.52080599e-05
2.54000000e+00	1.22771647e-03	4.44774664e-05
2.54500000e+00	1.23080224e-03	4.46492776e-05
2.55000000e+00	1.21798828e-03	4.43657654e-05
2.55500000e+00	1.21491951e-03	4.47666357e-05
2.56000000e+00	1.20030419e-03	4.43798043e-05
2.56500000e+00	1.19253272e-03	4.37683757e-05
2.57000000e+00	1.18924419e-03	4.38348443e-05
2.57500000e+00	1.16584275e-03	4.30228066e-05
2.58000000e+00	1.17468223e-03	4.41084349e-05
2.58500000e+00	1.17647457e-03	4.38493380e-05
2.59000000e+00	1.16188201e-03	4.31603523e-05
2.59500000e+00	1.15963373e-03	4.32404725e-05
2.60000000e+00	1.15772695e-03	4.34996526e-05
2.60500000e+00	1.17282814e-03	4.50315395e-05
2.61000000e+00	1.15522630e-03	5.04059470e-05
2.61500000e+00	1.13172182e-03	5.48049966e-05
2.62000000e+00	1.13432321e-03	6.03601709e-05
2.62500000e+00	1.11435913e-03	6.43675510e-05
2.63000000e+00	1.12899448e-03	7.18334525e-05
2.63500000e+00	1.12814379e-03	7.94594536e-05
2.64000000e+00	1.12799441e-03	8.77142021e-05
2.64500000e+00	1.10439658e-03	9.19610550e-05
2.65000000e+00	1.09056551e-03	9.59528227e-05
2.65500000e+00	1.11004462e-03	1.04883308e-04
2.66000000e+00	1.10657590e-03	1.12289137e-04
2.66500000e+00	1.05354219e-03	1.20551388e-04
2.67000000e+00	1.05016844e-03	1.29515313e-04
2.67500000e+00	1.06822637e-03	1.54190035e-04
2.68000000e+00	1.09911534e-03	1.84402123e-04
2.68500000e+00	1.00046208e-03	2.23381331e-04
2.69000000e+00	1.05423885e-03	3.82234906e-04
2.69500000e+00	0.00000000e+00	0.00000000e+00
2.70000000e+00	0.00000000e+00	0.00000000e+00
