% Filename : WDL7_00012_00162.h5
% Date & Time : 30-Oct-2025 14:55:51
% X-ray Energy (keV) : 13.30001
% Exposure Time (s) : 0.500
% Photodiode Value : 135803.000
% I0 of Sample : 0
% I0 of Standard : 1
% 
% q(A^-1)   I(q)    I(q)_SE
8.40000000e-01	0.00000000e+00	0.00000000e+00
8.45000000e-01	2.75497804e-03	4.82118393e-04
8.50000000e-01	2.68305293e-03	2.49174669e-04
8.55000000e-01	2.63959513e-03	2.15612653e-04
8.60000000e-01	2.60035614e-03	1.83958254e-04
8.65000000e-01	2.59552653e-03	1.69140117e-04
8.70000000e-01	2.57194463e-03	1.59914484e-04
8.75000000e-01	2.59342038e-03	1.55134287e-04
8.80000000e-01	2.65076093e-03	1.53131718e-04
8.85000000e-01	2.60918870e-03	1.42559127e-04
8.90000000e-01	2.60764767e-03	1.39541738e-04
8.95000000e-01	2.64916658e-03	1.37665024e-04
9.00000000e-01	2.62977364e-03	1.35369599e-04
9.05000000e-01	2.67782819e-03	1.31816130e-04
9.10000000e-01	2.61538387e-03	1.26385363e-04
9.15000000e-01	2.67025888e-03	1.27101546e-04
9.20000000e-01	2.68254711e-03	1.27529130e-04
9.25000000e-01	2.69844808e-03	1.22703046e-04
9.30000000e-01	2.68319996e-03	1.20716166e-04
9.35000000e-01	2.68568493e-03	1.18600455e-04
9.40000000e-01	2.68845803e-03	1.19073278e-04
9.45000000e-01	2.67031740e-03	1.15323499e-04
9.50000000e-01	2.71815518e-03	1.15705146e-04
9.55000000e-01	2.69347892e-03	1.12528235e-04
9.60000000e-01	2.70576585e-03	1.13246404e-04
9.65000000e-01	2.71245358e-03	1.11599959e-04
9.70000000e-01	2.71886824e-03	1.09966250e-04
9.75000000e-01	2.70880384e-03	1.08461831e-04
9.80000000e-01	2.72384018e-03	1.08037903e-04
9.85000000e-01	2.74808016e-03	1.09130259e-04
9.90000000e-01	2.72513193e-03	1.04947488e-04
9.95000000e-01	2.72816993e-03	1.04563097e-04
1.00000000e+00	2.72239973e-03	1.03876026e-04
1.00500000e+00	2.72601904e-03	1.04070111e-04
1.01000000e+00	2.72549828e-03	1.01832523e-04
1.01500000e+00	2.73154781e-03	1.00953282e-04
1.02000000e+00	2.72615407e-03	1.00885619e-04
1.02500000e+00	2.70438405e-03	9.89088257e-05
1.03000000e+00	2.73077829e-03	9.92604805e-05
1.03500000e+00	2.72520977e-03	9.77751349e-05
1.04000000e+00	2.72266384e-03	9.70815084e-05
1.04500000e+00	2.70274014e-03	9.64491504e-05
1.05000000e+00	2.70143396e-03	9.58509061e-05
1.05500000e+00	2.69970172e-03	9.43421541e-05
1.06000000e+00	2.67876842e-03	9.34002377e-05
1.06500000e+00	2.70808423e-03	9.44297474e-05
1.07000000e+00	2.70839341e-03	9.42617220e-05
1.07500000e+00	2.69164947e-03	9.30166622e-05
1.08000000e+00	2.72840635e-03	9.37017864e-05
1.08500000e+00	2.71411239e-03	9.32478772e-05
1.09000000e+00	2.70137385e-03	9.33641205e-05
1.09500000e+00	2.73455502e-03	9.26090868e-05
1.10000000e+00	2.74337487e-03	9.35644457e-05
1.10500000e+00	2.73839251e-03	9.36893566e-05
1.11000000e+00	2.75360081e-03	9.43398692e-05
1.11500000e+00	2.76912955e-03	9.40587981e-05
1.12000000e+00	2.79079662e-03	9.52461249e-05
1.12500000e+00	2.75608397e-03	9.39649028e-05
1.13000000e+00	2.77506307e-03	9.56913721e-05
1.13500000e+00	2.80712511e-03	9.55705306e-05
1.14000000e+00	2.78373869e-03	9.46286089e-05
1.14500000e+00	2.80651337e-03	9.60834064e-05
1.15000000e+00	2.80568244e-03	9.66552317e-05
1.15500000e+00	2.81413381e-03	9.58975853e-05
1.16000000e+00	2.83091221e-03	9.66327112e-05
1.16500000e+00	2.83309861e-03	9.67379049e-05
1.17000000e+00	2.82862007e-03	9.77173423e-05
1.17500000e+00	2.85496016e-03	9.71944249e-05
1.18000000e+00	2.82840892e-03	9.66542126e-05
1.18500000e+00	2.83822624e-03	9.70452023e-05
1.19000000e+00	2.85135939e-03	9.84910388e-05
1.19500000e+00	2.86123719e-03	9.75787813e-05
1.20000000e+00	2.85970052e-03	9.81193550e-05
1.20500000e+00	2.85026916e-03	9.76929757e-05
1.21000000e+00	2.86186652e-03	9.92567911e-05
1.21500000e+00	2.86111591e-03	9.76398201e-05
1.22000000e+00	2.85937927e-03	9.77611507e-05
1.22500000e+00	2.87185550e-03	9.86036716e-05
1.23000000e+00	2.89654190e-03	1.00145842e-04
1.23500000e+00	2.87447138e-03	9.88096280e-05
1.24000000e+00	2.89455886e-03	9.89015084e-05
1.24500000e+00	2.88156529e-03	9.92401060e-05
1.25000000e+00	2.88415677e-03	9.99414460e-05
1.25500000e+00	2.90401985e-03	9.94105003e-05
1.26000000e+00	2.86475232e-03	9.85808327e-05
1.26500000e+00	2.88215894e-03	9.88801503e-05
1.27000000e+00	2.87430307e-03	1.00009042e-04
1.27500000e+00	2.88189927e-03	9.92990625e-05
1.28000000e+00	2.92080967e-03	1.00079436e-04
1.28500000e+00	2.90279313e-03	9.99233044e-05
1.29000000e+00	2.90926344e-03	1.01062071e-04
1.29500000e+00	2.91676832e-03	1.00294844e-04
1.30000000e+00	2.92957879e-03	1.00515497e-04
1.30500000e+00	2.90362874e-03	1.00037961e-04
1.31000000e+00	2.89187859e-03	1.00911759e-04
1.31500000e+00	2.89892726e-03	9.99665130e-05
1.32000000e+00	2.88390949e-03	9.91690559e-05
1.32500000e+00	2.87454540e-03	9.91950171e-05
1.33000000e+00	2.90307391e-03	1.01332735e-04
1.33500000e+00	2.88714934e-03	9.94757092e-05
1.34000000e+00	2.93025567e-03	1.01026610e-04
1.34500000e+00	2.88119349e-03	9.97124250e-05
1.35000000e+00	2.88155215e-03	1.00700428e-04
1.35500000e+00	2.88046097e-03	9.92629265e-05
1.36000000e+00	2.90706220e-03	9.99947905e-05
1.36500000e+00	2.88624110e-03	9.96697401e-05
1.37000000e+00	2.87990725e-03	1.00880631e-04
1.37500000e+00	2.87683858e-03	9.92356112e-05
1.38000000e+00	2.85379071e-03	9.86293886e-05
1.38500000e+00	2.89560224e-03	1.00630595e-04
1.39000000e+00	2.86293992e-03	1.00087600e-04
1.39500000e+00	2.89439866e-03	9.98195267e-05
1.40000000e+00	2.93088027e-03	1.04025474e-04
1.40500000e+00	2.85739241e-03	1.09278584e-04
1.41000000e+00	2.85354054e-03	1.14174539e-04
1.41500000e+00	2.80667100e-03	1.16488134e-04
1.42000000e+00	2.83837675e-03	1.22441844e-04
1.42500000e+00	2.82481534e-03	1.25565458e-04
1.43000000e+00	2.78546024e-03	1.28514007e-04
1.43500000e+00	2.79838602e-03	1.32874198e-04
1.44000000e+00	2.76689742e-03	1.36610085e-04
1.44500000e+00	2.76138658e-03	1.39919251e-04
1.45000000e+00	2.84463289e-03	1.39498403e-04
1.45500000e+00	2.83389751e-03	1.24732422e-04
1.46000000e+00	2.84787484e-03	1.22426516e-04
1.46500000e+00	2.84995778e-03	1.20293788e-04
1.47000000e+00	2.80511229e-03	1.18225552e-04
1.47500000e+00	2.83964506e-03	1.16042280e-04
1.48000000e+00	2.81047090e-03	1.13723410e-04
1.48500000e+00	2.83591435e-03	1.14876013e-04
1.49000000e+00	2.81530592e-03	1.14401061e-04
1.49500000e+00	2.84179441e-03	1.12670468e-04
1.50000000e+00	2.83223833e-03	1.11983611e-04
1.50500000e+00	2.83898889e-03	1.12830103e-04
1.51000000e+00	2.85363947e-03	1.13626942e-04
1.51500000e+00	2.84782407e-03	1.11676247e-04
1.52000000e+00	2.84704987e-03	1.11148048e-04
1.52500000e+00	2.84942195e-03	1.11153537e-04
1.53000000e+00	2.84144532e-03	1.11542743e-04
1.53500000e+00	2.84780117e-03	1.08553670e-04
1.54000000e+00	2.83487108e-03	1.07821651e-04
1.54500000e+00	2.81486821e-03	1.06991982e-04
1.55000000e+00	2.82245480e-03	1.06956060e-04
1.55500000e+00	2.80098193e-03	1.03682552e-04
1.56000000e+00	2.80856200e-03	1.04230033e-04
1.56500000e+00	2.77161682e-03	1.02311619e-04
1.57000000e+00	2.77538594e-03	1.01751871e-04
1.57500000e+00	2.74660572e-03	9.88208984e-05
1.58000000e+00	2.74367957e-03	9.85479422e-05
1.58500000e+00	2.74576454e-03	9.86603735e-05
1.59000000e+00	2.73361955e-03	9.82731327e-05
1.59500000e+00	2.75104484e-03	9.69245025e-05
1.60000000e+00	2.71486585e-03	9.55977922e-05
1.60500000e+00	2.70122536e-03	9.52367697e-05
1.61000000e+00	2.70828991e-03	9.51270768e-05
1.61500000e+00	2.69422767e-03	9.36899937e-05
1.62000000e+00	2.69188694e-03	9.40785270e-05
1.62500000e+00	2.68601100e-03	9.49317588e-05
1.63000000e+00	2.67079910e-03	9.33989223e-05
1.63500000e+00	2.67212955e-03	9.34310239e-05
1.64000000e+00	2.66662978e-03	9.33424086e-05
1.64500000e+00	2.69208046e-03	9.52068165e-05
1.65000000e+00	2.65575707e-03	9.29093279e-05
1.65500000e+00	2.64263699e-03	9.22955186e-05
1.66000000e+00	2.64947760e-03	9.27025856e-05
1.66500000e+00	2.66729595e-03	9.48384325e-05
1.67000000e+00	2.64908689e-03	9.23026654e-05
1.67500000e+00	2.61203458e-03	9.11743019e-05
1.68000000e+00	2.62270163e-03	9.18967239e-05
1.68500000e+00	2.64430844e-03	9.41284609e-05
1.69000000e+00	2.62422584e-03	9.16635684e-05
1.69500000e+00	2.60162789e-03	9.07233004e-05
1.70000000e+00	2.59943632e-03	9.16785390e-05
1.70500000e+00	2.60941025e-03	9.23631890e-05
1.71000000e+00	2.59131867e-03	9.05549779e-05
1.71500000e+00	2.60500495e-03	9.10118084e-05
1.72000000e+00	2.58758094e-03	9.11785125e-05
1.72500000e+00	2.55799673e-03	9.06792756e-05
1.73000000e+00	2.55944333e-03	8.94970092e-05
1.73500000e+00	2.54584500e-03	8.92211560e-05
1.74000000e+00	2.55285776e-03	8.96539842e-05
1.74500000e+00	2.55105787e-03	9.06934035e-05
1.75000000e+00	2.54045512e-03	8.86332988e-05
1.75500000e+00	2.52936413e-03	8.87948089e-05
1.76000000e+00	2.53349083e-03	8.89131019e-05
1.76500000e+00	2.51930554e-03	8.94908801e-05
1.77000000e+00	2.52002552e-03	8.80269425e-05
1.77500000e+00	2.49711739e-03	8.75283656e-05
1.78000000e+00	2.50592615e-03	8.80628344e-05
1.78500000e+00	2.50241830e-03	8.88794438e-05
1.79000000e+00	2.49580774e-03	8.71562994e-05
1.79500000e+00	2.46786794e-03	8.65056836e-05
1.80000000e+00	2.46630902e-03	8.69393034e-05
1.80500000e+00	2.45408144e-03	8.70058339e-05
1.81000000e+00	2.47278542e-03	8.63979140e-05
1.81500000e+00	2.45515484e-03	8.58770854e-05
1.82000000e+00	2.46401606e-03	8.67948899e-05
1.82500000e+00	2.43035830e-03	8.61063856e-05
1.83000000e+00	2.42251469e-03	8.47710488e-05
1.83500000e+00	2.42216411e-03	8.48211858e-05
1.84000000e+00	2.41578343e-03	8.51456929e-05
1.84500000e+00	2.40394728e-03	8.52015135e-05
1.85000000e+00	2.41042480e-03	8.43867763e-05
1.85500000e+00	2.39040048e-03	8.37643649e-05
1.86000000e+00	2.39988993e-03	8.46266313e-05
1.86500000e+00	2.39295447e-03	8.46412533e-05
1.87000000e+00	2.36436411e-03	8.26722547e-05
1.87500000e+00	2.37723644e-03	8.34301959e-05
1.88000000e+00	2.34738177e-03	8.27302388e-05
1.88500000e+00	2.33971888e-03	8.29331651e-05
1.89000000e+00	2.35820357e-03	8.24634139e-05
1.89500000e+00	2.35221510e-03	8.26954049e-05
1.90000000e+00	2.34654605e-03	8.27644140e-05
1.90500000e+00	2.31026577e-03	8.15263085e-05
1.91000000e+00	2.33875060e-03	8.19416511e-05
1.91500000e+00	2.31889495e-03	8.13421289e-05
1.92000000e+00	2.30981910e-03	8.14779537e-05
1.92500000e+00	2.29323091e-03	8.09598841e-05
1.93000000e+00	2.29957789e-03	8.04292027e-05
1.93500000e+00	2.28009237e-03	8.01167213e-05
1.94000000e+00	2.28279589e-03	8.07574009e-05
1.94500000e+00	2.26841346e-03	8.00476743e-05
1.95000000e+00	2.28424522e-03	7.99078059e-05
1.95500000e+00	2.25736982e-03	7.92086843e-05
1.96000000e+00	2.25021248e-03	7.94609884e-05
1.96500000e+00	2.25695594e-03	7.97282471e-05
1.97000000e+00	2.26154682e-03	7.89368564e-05
1.97500000e+00	2.23985581e-03	7.87714578e-05
1.98000000e+00	2.22177221e-03	7.84203524e-05
1.98500000e+00	2.22280812e-03	7.86614966e-05
1.99000000e+00	2.22621981e-03	7.77783487e-05
1.99500000e+00	2.20346200e-03	7.73572727e-05
2.00000000e+00	2.18812466e-03	7.73318992e-05
2.00500000e+00	2.21395349e-03	7.83650290e-05
2.01000000e+00	2.19579046e-03	8.53507045e-05
2.01500000e+00	2.17816891e-03	8.98192213e-05
2.02000000e+00	2.15723469e-03	9.48990190e-05
2.02500000e+00	2.16127490e-03	9.88303014e-05
2.03000000e+00	2.13494677e-03	1.03352693e-04
2.03500000e+00	2.10669580e-03	1.06629569e-04
2.04000000e+00	2.10648023e-03	1.11264861e-04
2.04500000e+00	2.07696758e-03	1.15719818e-04
2.05000000e+00	2.10749995e-03	1.23126874e-04
2.05500000e+00	2.06553438e-03	1.18166999e-04
2.06000000e+00	2.11658069e-03	1.05508625e-04
2.06500000e+00	2.10166892e-03	1.00016068e-04
2.07000000e+00	2.09272651e-03	9.42985858e-05
2.07500000e+00	2.09138438e-03	9.20936009e-05
2.08000000e+00	2.08378419e-03	9.16052472e-05
2.08500000e+00	2.06944915e-03	9.00987144e-05
2.09000000e+00	2.06105135e-03	8.71442571e-05
2.09500000e+00	2.07083322e-03	8.66324656e-05
2.10000000e+00	2.06463900e-03	8.57905529e-05
2.10500000e+00	2.07304736e-03	8.58152042e-05
2.11000000e+00	2.03406866e-03	8.11245970e-05
2.11500000e+00	2.03610824e-03	8.04328642e-05
2.12000000e+00	2.01850367e-03	7.92959196e-05
2.12500000e+00	1.99210164e-03	7.80687914e-05
2.13000000e+00	1.99134224e-03	7.48006802e-05
2.13500000e+00	1.98150014e-03	7.36380427e-05
2.14000000e+00	1.96563999e-03	7.23773041e-05
2.14500000e+00	1.95199134e-03	7.20144694e-05
2.15000000e+00	1.93619068e-03	6.89952082e-05
2.15500000e+00	1.94339760e-03	6.95112542e-05
2.16000000e+00	1.92114055e-03	6.83594649e-05
2.16500000e+00	1.92141707e-03	6.88592531e-05
2.17000000e+00	1.90406324e-03	6.66091195e-05
2.17500000e+00	1.90983865e-03	6.69163563e-05
2.18000000e+00	1.88799718e-03	6.64006537e-05
2.18500000e+00	1.87479513e-03	6.62306277e-05
2.19000000e+00	1.87642260e-03	6.61729193e-05
2.19500000e+00	1.86183858e-03	6.51746305e-05
2.20000000e+00	1.87076115e-03	6.56825534e-05
2.20500000e+00	1.85400488e-03	6.52763947e-05
2.21000000e+00	1.84131643e-03	6.51676554e-05
2.21500000e+00	1.82864858e-03	6.41205011e-05
2.22000000e+00	1.81320546e-03	6.34335498e-05
2.22500000e+00	1.79268308e-03	6.32748184e-05
2.23000000e+00	1.77605510e-03	6.30107159e-05
2.23500000e+00	1.77801456e-03	6.22546178e-05
2.24000000e+00	1.79023159e-03	6.26925106e-05
2.24500000e+00	1.76840950e-03	6.23176462e-05
2.25000000e+00	1.74009283e-03	6.18848612e-05
2.25500000e+00	1.74742356e-03	6.09792149e-05
2.26000000e+00	1.71985719e-03	6.02845724e-05
2.26500000e+00	1.72770885e-03	6.07626766e-05
2.27000000e+00	1.69791230e-03	6.05886897e-05
2.27500000e+00	1.69371643e-03	5.92206330e-05
2.28000000e+00	1.66089478e-03	5.80807562e-05
2.28500000e+00	1.69093890e-03	5.95652414e-05
2.29000000e+00	1.66671321e-03	5.89961897e-05
2.29500000e+00	1.64000473e-03	5.78847006e-05
2.30000000e+00	1.63542888e-03	5.71767055e-05
2.30500000e+00	1.64082379e-03	5.75066218e-05
2.31000000e+00	1.61982358e-03	5.70827782e-05
2.31500000e+00	1.61346879e-03	5.73555978e-05
2.32000000e+00	1.59774963e-03	5.56247004e-05
2.32500000e+00	1.57363571e-03	5.52320549e-05
2.33000000e+00	1.57454483e-03	5.53318474e-05
2.33500000e+00	1.56170270e-03	5.54888209e-05
2.34000000e+00	1.56355813e-03	5.46463849e-05
2.34500000e+00	1.55459099e-03	5.43524037e-05
2.35000000e+00	1.54723539e-03	5.42640841e-05
2.35500000e+00	1.53603587e-03	5.45648070e-05
2.36000000e+00	1.52952178e-03	5.36418623e-05
2.36500000e+00	1.52947699e-03	5.34991307e-05
2.37000000e+00	1.51579149e-03	5.30601077e-05
2.37500000e+00	1.49302187e-03	5.27311664e-05
2.38000000e+00	1.48306309e-03	5.26568480e-05
2.38500000e+00	1.47375242e-03	5.15339039e-05
2.39000000e+00	1.46775978e-03	5.15233465e-05
2.39500000e+00	1.46530618e-03	5.17064293e-05
2.40000000e+00	1.46357459e-03	5.24239450e-05
2.40500000e+00	1.45747886e-03	5.11743458e-05
2.41000000e+00	1.42508759e-03	5.02236166e-05
2.41500000e+00	1.41661686e-03	4.99073345e-05
2.42000000e+00	1.42888464e-03	5.10569324e-05
2.42500000e+00	1.39612754e-03	4.97982513e-05
2.43000000e+00	1.38287406e-03	4.87838065e-05
2.43500000e+00	1.38124668e-03	4.89623573e-05
2.44000000e+00	1.38995621e-03	4.93293628e-05
2.44500000e+00	1.37579061e-03	4.94427480e-05
2.45000000e+00	1.36030520e-03	4.80714804e-05
2.45500000e+00	1.35439061e-03	4.79118044e-05
2.46000000e+00	1.35015119e-03	4.80478269e-05
2.46500000e+00	1.34228304e-03	4.83759420e-05
2.47000000e+00	1.32561947e-03	4.72551898e-05
2.47500000e+00	1.32832006e-03	4.70642258e-05
2.48000000e+00	1.31812692e-03	4.71087902e-05
2.48500000e+00	1.30605517e-03	4.67056913e-05
2.49000000e+00	1.31461246e-03	4.76606642e-05
2.49500000e+00	1.30213276e-03	4.62448453e-05
2.50000000e+00	1.29657884e-03	4.61984751e-05
2.50500000e+00	1.28654876e-03	4.61089803e-05
2.51000000e+00	1.26167234e-03	4.55794630e-05
2.51500000e+00	1.26266740e-03	4.56596692e-05
2.52000000e+00	1.25880609e-03	4.51237571e-05
2.52500000e+00	1.23866400e-03	4.46264613e-05
2.53000000e+00	1.24207435e-03	4.52028722e-05
2.53500000e+00	1.23391590e-03	4.53792448e-05
2.54000000e+00	1.23085551e-03	4.45067129e-05
2.54500000e+00	1.22196359e-03	4.44143569e-05
2.55000000e+00	1.21816127e-03	4.44839431e-05
2.55500000e+00	1.21607016e-03	4.48077559e-05
2.56000000e+00	1.21798048e-03	4.50797455e-05
2.56500000e+00	1.21259074e-03	4.44777274e-05
2.57000000e+00	1.18992106e-03	4.38700618e-05
2.57500000e+00	1.18605580e-03	4.38046691e-05
2.58000000e+00	1.16783332e-03	4.38596521e-05
2.58500000e+00	1.17454859e-03	4.38182318e-05
2.59000000e+00	1.17869133e-03	4.36829681e-05
2.59500000e+00	1.16507340e-03	4.35049035e-05
2.60000000e+00	1.15288383e-03	4.33318370e-05
2.60500000e+00	1.15374280e-03	4.43103549e-05
2.61000000e+00	1.15231929e-03	5.04120289e-05
2.61500000e+00	1.14737354e-03	5.55368091e-05
2.62000000e+00	1.12309829e-03	5.97413491e-05
2.62500000e+00	1.11872467e-03	6.43310630e-05
2.63000000e+00	1.11500904e-03	7.11219140e-05
2.63500000e+00	1.13429603e-03	8.00369758e-05
2.64000000e+00	1.12998974e-03	8.77965448e-05
2.64500000e+00	1.12686853e-03	9.35642369e-05
2.65000000e+00	1.10632569e-03	9.69377133e-05
2.65500000e+00	1.08754222e-03	1.02717749e-04
2.66000000e+00	1.09173226e-03	1.10698146e-04
2.66500000e+00	1.07829733e-03	1.22854016e-04
2.67000000e+00	1.08706084e-03	1.34351664e-04
2.67500000e+00	1.05699732e-03	1.52232366e-04
2.68000000e+00	1.03220355e-03	1.73254355e-04
2.68500000e+00	1.10168008e-03	2.45487051e-04
2.69000000e+00	1.27277493e-03	4.52439705e-04
2.69500000e+00	0.00000000e+00	0.00000000e+00
2.70000000e+00	0.00000000e+00	0.00000000e+00
