% Filename : WDL7_00012_00158.h5
% Date & Time : 30-Oct-2025 14:55:37
% X-ray Energy (keV) : 13.30001
% Exposure Time (s) : 0.500
% Photodiode Value : 136147.000
% I0 of Sample : 0
% I0 of Standard : 1
% 
% q(A^-1)   I(q)    I(q)_SE
8.40000000e-01	0.00000000e+00	0.00000000e+00
8.45000000e-01	2.70167527e-03	4.73197250e-04
8.50000000e-01	2.65280088e-03	2.45808045e-04
8.55000000e-01	2.58508014e-03	2.11636231e-04
8.60000000e-01	2.62332177e-03	1.85542547e-04
8.65000000e-01	2.61144597e-03	1.70273322e-04
8.70000000e-01	2.58537776e-03	1.60837448e-04
8.75000000e-01	2.64504738e-03	1.58159366e-04
8.80000000e-01	2.65064792e-03	1.53046495e-04
8.85000000e-01	2.64403316e-03	1.44587185e-04
8.90000000e-01	2.64212320e-03	1.41391754e-04
8.95000000e-01	2.63043228e-03	1.36839053e-04
9.00000000e-01	2.62231046e-03	1.35002713e-04
9.05000000e-01	2.64927100e-03	1.30578399e-04
9.10000000e-01	2.63336790e-03	1.27273729e-04
9.15000000e-01	2.66045151e-03	1.26730412e-04
9.20000000e-01	2.65706958e-03	1.26264058e-04
9.25000000e-01	2.66834328e-03	1.21518134e-04
9.30000000e-01	2.68126267e-03	1.20719633e-04
9.35000000e-01	2.71829902e-03	1.20070794e-04
9.40000000e-01	2.72134307e-03	1.20593562e-04
9.45000000e-01	2.71554252e-03	1.17210300e-04
9.50000000e-01	2.73256778e-03	1.16308127e-04
9.55000000e-01	2.69532958e-03	1.12723213e-04
9.60000000e-01	2.71513075e-03	1.13614366e-04
9.65000000e-01	2.73094285e-03	1.12386522e-04
9.70000000e-01	2.73692018e-03	1.10749902e-04
9.75000000e-01	2.70810123e-03	1.08326812e-04
9.80000000e-01	2.75841022e-03	1.09360991e-04
9.85000000e-01	2.73814843e-03	1.08809551e-04
9.90000000e-01	2.71762455e-03	1.04667358e-04
9.95000000e-01	2.72898480e-03	1.04494876e-04
1.00000000e+00	2.74032819e-03	1.04488549e-04
1.00500000e+00	2.74522993e-03	1.04756861e-04
1.01000000e+00	2.72636004e-03	1.01767679e-04
1.01500000e+00	2.71724311e-03	1.00450710e-04
1.02000000e+00	2.73748862e-03	1.01321035e-04
1.02500000e+00	2.71888853e-03	9.92576232e-05
1.03000000e+00	2.75010484e-03	1.00087509e-04
1.03500000e+00	2.72119171e-03	9.76286044e-05
1.04000000e+00	2.70708897e-03	9.65573029e-05
1.04500000e+00	2.69970674e-03	9.63809967e-05
1.05000000e+00	2.71591689e-03	9.63418576e-05
1.05500000e+00	2.70085487e-03	9.43130621e-05
1.06000000e+00	2.70914763e-03	9.44136708e-05
1.06500000e+00	2.72847785e-03	9.52090689e-05
1.07000000e+00	2.69769339e-03	9.40199094e-05
1.07500000e+00	2.72988420e-03	9.42225866e-05
1.08000000e+00	2.74039024e-03	9.41540365e-05
1.08500000e+00	2.74542117e-03	9.44091457e-05
1.09000000e+00	2.73342384e-03	9.44811907e-05
1.09500000e+00	2.73618549e-03	9.27226137e-05
1.10000000e+00	2.76976812e-03	9.44427572e-05
1.10500000e+00	2.75637508e-03	9.43184855e-05
1.11000000e+00	2.75407490e-03	9.44034577e-05
1.11500000e+00	2.77332326e-03	9.42958590e-05
1.12000000e+00	2.79797020e-03	9.56290457e-05
1.12500000e+00	2.80586540e-03	9.56463311e-05
1.13000000e+00	2.75951046e-03	9.50726263e-05
1.13500000e+00	2.78040752e-03	9.45833053e-05
1.14000000e+00	2.81941956e-03	9.58840843e-05
1.14500000e+00	2.83561826e-03	9.71723713e-05
1.15000000e+00	2.79884859e-03	9.64572845e-05
1.15500000e+00	2.83462508e-03	9.65710288e-05
1.16000000e+00	2.84151488e-03	9.70991556e-05
1.16500000e+00	2.84217995e-03	9.70332322e-05
1.17000000e+00	2.84263226e-03	9.83081931e-05
1.17500000e+00	2.84990280e-03	9.70741462e-05
1.18000000e+00	2.81536562e-03	9.63322168e-05
1.18500000e+00	2.86250634e-03	9.79521245e-05
1.19000000e+00	2.87156063e-03	9.91871119e-05
1.19500000e+00	2.87264027e-03	9.80066405e-05
1.20000000e+00	2.91004545e-03	9.98915147e-05
1.20500000e+00	2.86742401e-03	9.82999469e-05
1.21000000e+00	2.86460271e-03	9.92796491e-05
1.21500000e+00	2.88773261e-03	9.86293191e-05
1.22000000e+00	2.89212519e-03	9.87990577e-05
1.22500000e+00	2.88828087e-03	9.90810970e-05
1.23000000e+00	2.88008354e-03	9.96362313e-05
1.23500000e+00	2.89978678e-03	9.96081748e-05
1.24000000e+00	2.90744048e-03	9.93895744e-05
1.24500000e+00	2.88857666e-03	9.95462894e-05
1.25000000e+00	2.90843191e-03	1.00816284e-04
1.25500000e+00	2.90626395e-03	9.94127991e-05
1.26000000e+00	2.90336424e-03	9.99211953e-05
1.26500000e+00	2.90691888e-03	9.98586116e-05
1.27000000e+00	2.91179009e-03	1.01395798e-04
1.27500000e+00	2.90665039e-03	1.00145022e-04
1.28000000e+00	2.90816071e-03	9.95527090e-05
1.28500000e+00	2.90067771e-03	9.99750780e-05
1.29000000e+00	2.90332217e-03	1.00941941e-04
1.29500000e+00	2.91311220e-03	1.00109581e-04
1.30000000e+00	2.90609607e-03	9.97505686e-05
1.30500000e+00	2.89286340e-03	9.97683916e-05
1.31000000e+00	2.91079898e-03	1.01476767e-04
1.31500000e+00	2.92334402e-03	1.00687499e-04
1.32000000e+00	2.93347683e-03	1.00870720e-04
1.32500000e+00	2.91920869e-03	1.00646066e-04
1.33000000e+00	2.91520326e-03	1.01781165e-04
1.33500000e+00	2.91379377e-03	1.00346682e-04
1.34000000e+00	2.92648736e-03	1.00835314e-04
1.34500000e+00	2.90003781e-03	1.00358086e-04
1.35000000e+00	2.90787964e-03	1.01662962e-04
1.35500000e+00	2.90457029e-03	1.00072288e-04
1.36000000e+00	2.92031056e-03	1.00440106e-04
1.36500000e+00	2.91182801e-03	1.00503204e-04
1.37000000e+00	2.89211687e-03	1.01322030e-04
1.37500000e+00	2.91839588e-03	1.00622219e-04
1.38000000e+00	2.91097928e-03	1.00612694e-04
1.38500000e+00	2.91308759e-03	1.01219101e-04
1.39000000e+00	2.88637212e-03	1.01028625e-04
1.39500000e+00	2.90588402e-03	1.00235624e-04
1.40000000e+00	2.94112112e-03	1.04406431e-04
1.40500000e+00	2.89793205e-03	1.10845304e-04
1.41000000e+00	2.85195409e-03	1.14204439e-04
1.41500000e+00	2.86767258e-03	1.19031729e-04
1.42000000e+00	2.85303313e-03	1.23055133e-04
1.42500000e+00	2.80898222e-03	1.24873163e-04
1.43000000e+00	2.82446572e-03	1.30222386e-04
1.43500000e+00	2.74899800e-03	1.30744503e-04
1.44000000e+00	2.81007837e-03	1.38794696e-04
1.44500000e+00	2.73713573e-03	1.38719874e-04
1.45000000e+00	2.83148833e-03	1.38577134e-04
1.45500000e+00	2.89249375e-03	1.27321992e-04
1.46000000e+00	2.85809998e-03	1.22772078e-04
1.46500000e+00	2.86566034e-03	1.20921838e-04
1.47000000e+00	2.83007026e-03	1.19245260e-04
1.47500000e+00	2.85960626e-03	1.17010545e-04
1.48000000e+00	2.85746334e-03	1.15571238e-04
1.48500000e+00	2.85809324e-03	1.15757774e-04
1.49000000e+00	2.87546098e-03	1.16639527e-04
1.49500000e+00	2.85040396e-03	1.13152113e-04
1.50000000e+00	2.84988218e-03	1.12667252e-04
1.50500000e+00	2.87663125e-03	1.14336333e-04
1.51000000e+00	2.84147408e-03	1.13208082e-04
1.51500000e+00	2.86804288e-03	1.12380512e-04
1.52000000e+00	2.87517156e-03	1.12233116e-04
1.52500000e+00	2.86902417e-03	1.11954666e-04
1.53000000e+00	2.86110679e-03	1.12289529e-04
1.53500000e+00	2.84304930e-03	1.08387111e-04
1.54000000e+00	2.85372987e-03	1.08639396e-04
1.54500000e+00	2.89036611e-03	1.09759502e-04
1.55000000e+00	2.86280407e-03	1.08495558e-04
1.55500000e+00	2.82743704e-03	1.04778864e-04
1.56000000e+00	2.83161381e-03	1.05073194e-04
1.56500000e+00	2.80561657e-03	1.03541064e-04
1.57000000e+00	2.76802287e-03	1.01467409e-04
1.57500000e+00	2.77216924e-03	9.98059003e-05
1.58000000e+00	2.77258400e-03	9.96581185e-05
1.58500000e+00	2.74477726e-03	9.86444900e-05
1.59000000e+00	2.76475495e-03	9.93374337e-05
1.59500000e+00	2.74963040e-03	9.69533084e-05
1.60000000e+00	2.74025668e-03	9.64503549e-05
1.60500000e+00	2.73510888e-03	9.64841783e-05
1.61000000e+00	2.73435658e-03	9.60282418e-05
1.61500000e+00	2.74574952e-03	9.55222269e-05
1.62000000e+00	2.72221061e-03	9.51342537e-05
1.62500000e+00	2.70916966e-03	9.57278884e-05
1.63000000e+00	2.70488991e-03	9.45125501e-05
1.63500000e+00	2.68492781e-03	9.38340685e-05
1.64000000e+00	2.69610580e-03	9.42858549e-05
1.64500000e+00	2.70226828e-03	9.56300484e-05
1.65000000e+00	2.67929176e-03	9.37606080e-05
1.65500000e+00	2.67446511e-03	9.34237884e-05
1.66000000e+00	2.69292787e-03	9.41852344e-05
1.66500000e+00	2.64848913e-03	9.42153894e-05
1.67000000e+00	2.66109541e-03	9.27305267e-05
1.67500000e+00	2.65557167e-03	9.26901398e-05
1.68000000e+00	2.67942292e-03	9.38214386e-05
1.68500000e+00	2.64657914e-03	9.42367056e-05
1.69000000e+00	2.62597585e-03	9.17295724e-05
1.69500000e+00	2.63108999e-03	9.17026830e-05
1.70000000e+00	2.62942745e-03	9.26884746e-05
1.70500000e+00	2.60715369e-03	9.23775918e-05
1.71000000e+00	2.60510714e-03	9.10999039e-05
1.71500000e+00	2.61178326e-03	9.12139633e-05
1.72000000e+00	2.62220420e-03	9.23520281e-05
1.72500000e+00	2.58894888e-03	9.17297436e-05
1.73000000e+00	2.58846875e-03	9.04291458e-05
1.73500000e+00	2.56972660e-03	9.00937021e-05
1.74000000e+00	2.59577161e-03	9.11820513e-05
1.74500000e+00	2.56672206e-03	9.12607279e-05
1.75000000e+00	2.56456413e-03	8.94072007e-05
1.75500000e+00	2.57219560e-03	9.03580649e-05
1.76000000e+00	2.56829668e-03	9.00967636e-05
1.76500000e+00	2.53285460e-03	8.99498976e-05
1.77000000e+00	2.55055156e-03	8.91017751e-05
1.77500000e+00	2.52860176e-03	8.86453918e-05
1.78000000e+00	2.52257833e-03	8.87069869e-05
1.78500000e+00	2.52517614e-03	8.96840664e-05
1.79000000e+00	2.51823494e-03	8.79918184e-05
1.79500000e+00	2.51287621e-03	8.80139592e-05
1.80000000e+00	2.49021911e-03	8.77589691e-05
1.80500000e+00	2.50601008e-03	8.88413034e-05
1.81000000e+00	2.48834020e-03	8.69877737e-05
1.81500000e+00	2.45619559e-03	8.58772667e-05
1.82000000e+00	2.46403978e-03	8.67457427e-05
1.82500000e+00	2.47001307e-03	8.75149865e-05
1.83000000e+00	2.47025887e-03	8.63646915e-05
1.83500000e+00	2.44611039e-03	8.57013855e-05
1.84000000e+00	2.45230976e-03	8.63422307e-05
1.84500000e+00	2.43430721e-03	8.63073916e-05
1.85000000e+00	2.43598712e-03	8.52377919e-05
1.85500000e+00	2.43953898e-03	8.55129014e-05
1.86000000e+00	2.41208545e-03	8.50857896e-05
1.86500000e+00	2.41310039e-03	8.53080783e-05
1.87000000e+00	2.39937335e-03	8.40160092e-05
1.87500000e+00	2.41215576e-03	8.46270637e-05
1.88000000e+00	2.37256813e-03	8.36131887e-05
1.88500000e+00	2.38250982e-03	8.45294474e-05
1.89000000e+00	2.36165110e-03	8.26287878e-05
1.89500000e+00	2.37031289e-03	8.33312246e-05
1.90000000e+00	2.34390890e-03	8.26039536e-05
1.90500000e+00	2.34188055e-03	8.27268992e-05
1.91000000e+00	2.36541518e-03	8.29821934e-05
1.91500000e+00	2.34459288e-03	8.21599555e-05
1.92000000e+00	2.32019521e-03	8.18130618e-05
1.92500000e+00	2.30173380e-03	8.12499729e-05
1.93000000e+00	2.32627204e-03	8.14184458e-05
1.93500000e+00	2.30642623e-03	8.10293570e-05
1.94000000e+00	2.31913697e-03	8.20434736e-05
1.94500000e+00	2.29915500e-03	8.10432182e-05
1.95000000e+00	2.31019566e-03	8.07470342e-05
1.95500000e+00	2.29106333e-03	8.04332976e-05
1.96000000e+00	2.27708871e-03	8.04448911e-05
1.96500000e+00	2.26154192e-03	7.98573559e-05
1.97000000e+00	2.25547508e-03	7.87385701e-05
1.97500000e+00	2.25988325e-03	7.94810627e-05
1.98000000e+00	2.25256706e-03	7.95241226e-05
1.98500000e+00	2.22650658e-03	7.87819984e-05
1.99000000e+00	2.24038679e-03	7.82658661e-05
1.99500000e+00	2.23174920e-03	7.83457882e-05
2.00000000e+00	2.20232900e-03	7.78514576e-05
2.00500000e+00	2.22578530e-03	7.88802348e-05
2.01000000e+00	2.20154115e-03	8.54726717e-05
2.01500000e+00	2.19764712e-03	9.06441825e-05
2.02000000e+00	2.18768747e-03	9.62312675e-05
2.02500000e+00	2.15789507e-03	9.87637795e-05
2.03000000e+00	2.15323917e-03	1.04298455e-04
2.03500000e+00	2.11276831e-03	1.06906440e-04
2.04000000e+00	2.08597042e-03	1.10204854e-04
2.04500000e+00	2.10563394e-03	1.17175667e-04
2.05000000e+00	2.08612959e-03	1.22090634e-04
2.05500000e+00	2.10824015e-03	1.20837901e-04
2.06000000e+00	2.14146458e-03	1.06750933e-04
2.06500000e+00	2.10865066e-03	1.00258413e-04
2.07000000e+00	2.12577346e-03	9.57275182e-05
2.07500000e+00	2.11120635e-03	9.30143028e-05
2.08000000e+00	2.11253657e-03	9.29314369e-05
2.08500000e+00	2.09139101e-03	9.11058856e-05
2.09000000e+00	2.10458277e-03	8.89912853e-05
2.09500000e+00	2.09754040e-03	8.76937921e-05
2.10000000e+00	2.08122339e-03	8.64618186e-05
2.10500000e+00	2.07256772e-03	8.57898369e-05
2.11000000e+00	2.07611516e-03	8.29009816e-05
2.11500000e+00	2.06541853e-03	8.15634647e-05
2.12000000e+00	2.04220912e-03	8.01806861e-05
2.12500000e+00	2.02408712e-03	7.92241192e-05
2.13000000e+00	2.00731851e-03	7.54476858e-05
2.13500000e+00	2.00910127e-03	7.45315238e-05
2.14000000e+00	1.97418268e-03	7.26512778e-05
2.14500000e+00	1.96167190e-03	7.23863726e-05
2.15000000e+00	1.95302313e-03	6.97220889e-05
2.15500000e+00	1.95520187e-03	6.99017896e-05
2.16000000e+00	1.92748765e-03	6.85908869e-05
2.16500000e+00	1.94704741e-03	6.97807337e-05
2.17000000e+00	1.90615461e-03	6.65263669e-05
2.17500000e+00	1.93038608e-03	6.76513810e-05
2.18000000e+00	1.90356889e-03	6.69559558e-05
2.18500000e+00	1.90038978e-03	6.71547676e-05
2.19000000e+00	1.90026225e-03	6.69652753e-05
2.19500000e+00	1.88239479e-03	6.59004868e-05
2.20000000e+00	1.87288206e-03	6.58095399e-05
2.20500000e+00	1.87705313e-03	6.61673520e-05
2.21000000e+00	1.85832109e-03	6.57643523e-05
2.21500000e+00	1.83272361e-03	6.41888409e-05
2.22000000e+00	1.82676479e-03	6.38912863e-05
2.22500000e+00	1.82514739e-03	6.43675761e-05
2.23000000e+00	1.82847497e-03	6.48205073e-05
2.23500000e+00	1.80787437e-03	6.32158127e-05
2.24000000e+00	1.78581392e-03	6.25532303e-05
2.24500000e+00	1.76604247e-03	6.22432646e-05
2.25000000e+00	1.75253218e-03	6.22895330e-05
2.25500000e+00	1.75344262e-03	6.12278495e-05
2.26000000e+00	1.74292499e-03	6.11285677e-05
2.26500000e+00	1.71967612e-03	6.04099007e-05
2.27000000e+00	1.71238280e-03	6.11262204e-05
2.27500000e+00	1.70176857e-03	5.94939605e-05
2.28000000e+00	1.69939819e-03	5.94224714e-05
2.28500000e+00	1.67777323e-03	5.90926304e-05
2.29000000e+00	1.68323721e-03	5.96594302e-05
2.29500000e+00	1.65671277e-03	5.85271922e-05
2.30000000e+00	1.65997895e-03	5.80347192e-05
2.30500000e+00	1.64418255e-03	5.75798551e-05
2.31000000e+00	1.62607232e-03	5.73395178e-05
2.31500000e+00	1.60488681e-03	5.70455856e-05
2.32000000e+00	1.60994283e-03	5.60325269e-05
2.32500000e+00	1.61418819e-03	5.66711068e-05
2.33000000e+00	1.57950198e-03	5.55519328e-05
2.33500000e+00	1.59085784e-03	5.65356824e-05
2.34000000e+00	1.56106612e-03	5.45112856e-05
2.34500000e+00	1.57100326e-03	5.49455553e-05
2.35000000e+00	1.55635501e-03	5.45579686e-05
2.35500000e+00	1.53919714e-03	5.46888145e-05
2.36000000e+00	1.53553997e-03	5.37781988e-05
2.36500000e+00	1.53872854e-03	5.38382689e-05
2.37000000e+00	1.51326662e-03	5.29879087e-05
2.37500000e+00	1.50069033e-03	5.30369379e-05
2.38000000e+00	1.49415507e-03	5.29754470e-05
2.38500000e+00	1.48735780e-03	5.20490112e-05
2.39000000e+00	1.49260358e-03	5.24109135e-05
2.39500000e+00	1.46514720e-03	5.16575251e-05
2.40000000e+00	1.44731846e-03	5.17826655e-05
2.40500000e+00	1.45231513e-03	5.09891668e-05
2.41000000e+00	1.43805406e-03	5.06555333e-05
2.41500000e+00	1.43024103e-03	5.03095229e-05
2.42000000e+00	1.44255310e-03	5.15651606e-05
2.42500000e+00	1.41712759e-03	5.04737043e-05
2.43000000e+00	1.41050813e-03	4.97252956e-05
2.43500000e+00	1.39600018e-03	4.94478518e-05
2.44000000e+00	1.39340092e-03	4.94667961e-05
2.44500000e+00	1.35895452e-03	4.89497881e-05
2.45000000e+00	1.37268797e-03	4.84555724e-05
2.45500000e+00	1.33708654e-03	4.72986527e-05
2.46000000e+00	1.36063441e-03	4.84581737e-05
2.46500000e+00	1.34359254e-03	4.83949605e-05
2.47000000e+00	1.33202026e-03	4.74932835e-05
2.47500000e+00	1.32406542e-03	4.69382757e-05
2.48000000e+00	1.32179706e-03	4.72480232e-05
2.48500000e+00	1.29796502e-03	4.64020518e-05
2.49000000e+00	1.30793328e-03	4.74158130e-05
2.49500000e+00	1.29501323e-03	4.60318228e-05
2.50000000e+00	1.29248955e-03	4.61553163e-05
2.50500000e+00	1.27861393e-03	4.58751862e-05
2.51000000e+00	1.27822989e-03	4.61013859e-05
2.51500000e+00	1.27564528e-03	4.61670950e-05
2.52000000e+00	1.26053796e-03	4.51842278e-05
2.52500000e+00	1.24959107e-03	4.50009525e-05
2.53000000e+00	1.23734798e-03	4.49984174e-05
2.53500000e+00	1.23000118e-03	4.52631126e-05
2.54000000e+00	1.22895407e-03	4.44962091e-05
2.54500000e+00	1.23608967e-03	4.49395719e-05
2.55000000e+00	1.23619264e-03	4.50975596e-05
2.55500000e+00	1.20802108e-03	4.44936002e-05
2.56000000e+00	1.21168217e-03	4.48040723e-05
2.56500000e+00	1.20327026e-03	4.41137804e-05
2.57000000e+00	1.18965719e-03	4.38158126e-05
2.57500000e+00	1.19435929e-03	4.41338774e-05
2.58000000e+00	1.18489183e-03	4.44743017e-05
2.58500000e+00	1.17707085e-03	4.38935679e-05
2.59000000e+00	1.16766141e-03	4.33553840e-05
2.59500000e+00	1.14589910e-03	4.27723158e-05
2.60000000e+00	1.15691547e-03	4.34472058e-05
2.60500000e+00	1.16540674e-03	4.48475644e-05
2.61000000e+00	1.16481062e-03	5.09898062e-05
2.61500000e+00	1.12789267e-03	5.46000502e-05
2.62000000e+00	1.12666341e-03	5.99077932e-05
2.62500000e+00	1.13505265e-03	6.55263641e-05
2.63000000e+00	1.13100747e-03	7.22191404e-05
2.63500000e+00	1.15028032e-03	8.12313671e-05
2.64000000e+00	1.10019665e-03	8.60474046e-05
2.64500000e+00	1.10060537e-03	9.15343522e-05
2.65000000e+00	1.10236282e-03	9.67471605e-05
2.65500000e+00	1.08483023e-03	1.02532384e-04
2.66000000e+00	1.06813894e-03	1.08685041e-04
2.66500000e+00	1.05746773e-03	1.20694414e-04
2.67000000e+00	1.06549727e-03	1.31363433e-04
2.67500000e+00	1.10065617e-03	1.57740427e-04
2.68000000e+00	1.02176944e-03	1.71381903e-04
2.68500000e+00	1.10087294e-03	2.45749992e-04
2.69000000e+00	9.94940833e-04	3.67012407e-04
2.69500000e+00	0.00000000e+00	0.00000000e+00
2.70000000e+00	0.00000000e+00	0.00000000e+00
