% Filename : WDL7_00012_00021.h5
% Date & Time : 30-Oct-2025 14:47:18
% X-ray Energy (keV) : 13.30001
% Exposure Time (s) : 0.500
% Photodiode Value : 136020.000
% I0 of Sample : 0
% I0 of Standard : 1
% 
% q(A^-1)   I(q)    I(q)_SE
8.40000000e-01	0.00000000e+00	0.00000000e+00
8.45000000e-01	2.90603887e-03	5.09374952e-04
8.50000000e-01	2.65458803e-03	2.46553077e-04
8.55000000e-01	2.61279577e-03	2.13658208e-04
8.60000000e-01	2.62699409e-03	1.85962077e-04
8.65000000e-01	2.57409325e-03	1.67688729e-04
8.70000000e-01	2.58966964e-03	1.60951718e-04
8.75000000e-01	2.63835881e-03	1.57817323e-04
8.80000000e-01	2.61447127e-03	1.51225572e-04
8.85000000e-01	2.61987169e-03	1.43243149e-04
8.90000000e-01	2.63404846e-03	1.40850524e-04
8.95000000e-01	2.64999129e-03	1.37813019e-04
9.00000000e-01	2.66207656e-03	1.37141854e-04
9.05000000e-01	2.62702401e-03	1.29454771e-04
9.10000000e-01	2.67837245e-03	1.29465728e-04
9.15000000e-01	2.69415038e-03	1.28309634e-04
9.20000000e-01	2.67342540e-03	1.27176077e-04
9.25000000e-01	2.67449683e-03	1.21620735e-04
9.30000000e-01	2.69148132e-03	1.21149393e-04
9.35000000e-01	2.72944201e-03	1.20587299e-04
9.40000000e-01	2.70039340e-03	1.19430480e-04
9.45000000e-01	2.69970182e-03	1.16557212e-04
9.50000000e-01	2.71697078e-03	1.15658800e-04
9.55000000e-01	2.73413536e-03	1.14222991e-04
9.60000000e-01	2.73977468e-03	1.14560238e-04
9.65000000e-01	2.70783189e-03	1.11375256e-04
9.70000000e-01	2.71952641e-03	1.10009259e-04
9.75000000e-01	2.71586058e-03	1.08698742e-04
9.80000000e-01	2.75706713e-03	1.09448749e-04
9.85000000e-01	2.74237819e-03	1.09002582e-04
9.90000000e-01	2.73411269e-03	1.05331131e-04
9.95000000e-01	2.76848648e-03	1.06112015e-04
1.00000000e+00	2.74952438e-03	1.04855091e-04
1.00500000e+00	2.74478479e-03	1.04712074e-04
1.01000000e+00	2.76329125e-03	1.03116302e-04
1.01500000e+00	2.76039180e-03	1.02038326e-04
1.02000000e+00	2.73805248e-03	1.01185675e-04
1.02500000e+00	2.75439414e-03	1.00541712e-04
1.03000000e+00	2.73515653e-03	9.95434428e-05
1.03500000e+00	2.71775853e-03	9.74253934e-05
1.04000000e+00	2.72179732e-03	9.70574763e-05
1.04500000e+00	2.71729812e-03	9.69420376e-05
1.05000000e+00	2.73377870e-03	9.69546425e-05
1.05500000e+00	2.73219705e-03	9.53164499e-05
1.06000000e+00	2.70897479e-03	9.44014184e-05
1.06500000e+00	2.71916079e-03	9.48335985e-05
1.07000000e+00	2.70187970e-03	9.39750732e-05
1.07500000e+00	2.74290239e-03	9.47821625e-05
1.08000000e+00	2.75267155e-03	9.45500019e-05
1.08500000e+00	2.75694420e-03	9.47665027e-05
1.09000000e+00	2.75487674e-03	9.51941587e-05
1.09500000e+00	2.75784419e-03	9.34784430e-05
1.10000000e+00	2.73925017e-03	9.33313405e-05
1.10500000e+00	2.76302096e-03	9.45473520e-05
1.11000000e+00	2.75811691e-03	9.45111910e-05
1.11500000e+00	2.78242238e-03	9.46746256e-05
1.12000000e+00	2.81181213e-03	9.59849535e-05
1.12500000e+00	2.81879549e-03	9.61090985e-05
1.13000000e+00	2.81515850e-03	9.69634583e-05
1.13500000e+00	2.81625353e-03	9.58610574e-05
1.14000000e+00	2.82584535e-03	9.59666932e-05
1.14500000e+00	2.84688427e-03	9.75273428e-05
1.15000000e+00	2.82889197e-03	9.73258104e-05
1.15500000e+00	2.83869122e-03	9.67105228e-05
1.16000000e+00	2.86761001e-03	9.79762496e-05
1.16500000e+00	2.85083118e-03	9.73157880e-05
1.17000000e+00	2.87052450e-03	9.92047734e-05
1.17500000e+00	2.86344742e-03	9.75261462e-05
1.18000000e+00	2.88277905e-03	9.86413856e-05
1.18500000e+00	2.87498023e-03	9.82720143e-05
1.19000000e+00	2.88593064e-03	9.97064615e-05
1.19500000e+00	2.90141216e-03	9.89959060e-05
1.20000000e+00	2.90725030e-03	9.96481846e-05
1.20500000e+00	2.90085099e-03	9.94405533e-05
1.21000000e+00	2.90559434e-03	1.00797066e-04
1.21500000e+00	2.92915713e-03	1.00025796e-04
1.22000000e+00	2.91122957e-03	9.94412915e-05
1.22500000e+00	2.89042087e-03	9.90717197e-05
1.23000000e+00	2.93293547e-03	1.01392683e-04
1.23500000e+00	2.92710561e-03	1.00509064e-04
1.24000000e+00	2.93887579e-03	1.00479056e-04
1.24500000e+00	2.93592515e-03	1.01185211e-04
1.25000000e+00	2.92066326e-03	1.01150527e-04
1.25500000e+00	2.94342229e-03	1.00789231e-04
1.26000000e+00	2.93020182e-03	1.00844020e-04
1.26500000e+00	2.90660865e-03	9.97209757e-05
1.27000000e+00	2.90912694e-03	1.01269476e-04
1.27500000e+00	2.94745403e-03	1.01523464e-04
1.28000000e+00	2.94594434e-03	1.00931878e-04
1.28500000e+00	2.92635174e-03	1.00764607e-04
1.29000000e+00	2.91541965e-03	1.01229451e-04
1.29500000e+00	2.93542006e-03	1.00929319e-04
1.30000000e+00	2.96838706e-03	1.01884337e-04
1.30500000e+00	2.95971359e-03	1.02027564e-04
1.31000000e+00	2.94696979e-03	1.02808190e-04
1.31500000e+00	2.94154974e-03	1.01254697e-04
1.32000000e+00	2.95572649e-03	1.01700867e-04
1.32500000e+00	2.93998548e-03	1.01383163e-04
1.33000000e+00	2.94815187e-03	1.02941727e-04
1.33500000e+00	2.93178220e-03	1.00939830e-04
1.34000000e+00	2.93697932e-03	1.01284799e-04
1.34500000e+00	2.93661209e-03	1.01629909e-04
1.35000000e+00	2.93734043e-03	1.02657601e-04
1.35500000e+00	2.93001652e-03	1.00954242e-04
1.36000000e+00	2.93643275e-03	1.00954445e-04
1.36500000e+00	2.95207076e-03	1.01916422e-04
1.37000000e+00	2.95277628e-03	1.03355942e-04
1.37500000e+00	2.92633182e-03	1.00907898e-04
1.38000000e+00	2.95330280e-03	1.02068765e-04
1.38500000e+00	2.94308103e-03	1.02224367e-04
1.39000000e+00	2.91851169e-03	1.02030958e-04
1.39500000e+00	2.94879246e-03	1.01637582e-04
1.40000000e+00	2.96570835e-03	1.05301274e-04
1.40500000e+00	2.93484022e-03	1.12282058e-04
1.41000000e+00	2.90975400e-03	1.16443066e-04
1.41500000e+00	2.88279656e-03	1.19472697e-04
1.42000000e+00	2.88988851e-03	1.24667974e-04
1.42500000e+00	2.87606186e-03	1.27790339e-04
1.43000000e+00	2.85121104e-03	1.31498288e-04
1.43500000e+00	2.81527966e-03	1.33732931e-04
1.44000000e+00	2.80743940e-03	1.38503431e-04
1.44500000e+00	2.81303288e-03	1.42451589e-04
1.45000000e+00	2.89816947e-03	1.41986907e-04
1.45500000e+00	2.92126001e-03	1.28454818e-04
1.46000000e+00	2.90224503e-03	1.24699718e-04
1.46500000e+00	2.89224001e-03	1.22013609e-04
1.47000000e+00	2.88878516e-03	1.21570853e-04
1.47500000e+00	2.90878305e-03	1.18968073e-04
1.48000000e+00	2.88752572e-03	1.16728656e-04
1.48500000e+00	2.89941340e-03	1.17432886e-04
1.49000000e+00	2.86506185e-03	1.16228760e-04
1.49500000e+00	2.89010008e-03	1.14645796e-04
1.50000000e+00	2.88744573e-03	1.14225900e-04
1.50500000e+00	2.90808726e-03	1.15590536e-04
1.51000000e+00	2.92245832e-03	1.16371239e-04
1.51500000e+00	2.92540798e-03	1.14698158e-04
1.52000000e+00	2.92307463e-03	1.14136547e-04
1.52500000e+00	2.92787665e-03	1.14144875e-04
1.53000000e+00	2.91224158e-03	1.14272658e-04
1.53500000e+00	2.90263054e-03	1.10656562e-04
1.54000000e+00	2.90594751e-03	1.10607973e-04
1.54500000e+00	2.87340675e-03	1.09152366e-04
1.55000000e+00	2.88077559e-03	1.09126652e-04
1.55500000e+00	2.85835664e-03	1.05792743e-04
1.56000000e+00	2.86213763e-03	1.06227933e-04
1.56500000e+00	2.82877080e-03	1.04433711e-04
1.57000000e+00	2.79922734e-03	1.02711216e-04
1.57500000e+00	2.81458679e-03	1.01283837e-04
1.58000000e+00	2.81610843e-03	1.01227204e-04
1.58500000e+00	2.79398759e-03	1.00451229e-04
1.59000000e+00	2.80544332e-03	1.00832757e-04
1.59500000e+00	2.77558079e-03	9.78957930e-05
1.60000000e+00	2.79565995e-03	9.84185821e-05
1.60500000e+00	2.77363124e-03	9.77604623e-05
1.61000000e+00	2.77516907e-03	9.73839866e-05
1.61500000e+00	2.76448092e-03	9.61577469e-05
1.62000000e+00	2.75112572e-03	9.61027955e-05
1.62500000e+00	2.75511984e-03	9.73694674e-05
1.63000000e+00	2.75166935e-03	9.61980622e-05
1.63500000e+00	2.76052206e-03	9.64956478e-05
1.64000000e+00	2.75403634e-03	9.63486261e-05
1.64500000e+00	2.72417060e-03	9.63076309e-05
1.65000000e+00	2.70995730e-03	9.48151007e-05
1.65500000e+00	2.73478796e-03	9.54682185e-05
1.66000000e+00	2.69616100e-03	9.43813372e-05
1.66500000e+00	2.70008384e-03	9.60684855e-05
1.67000000e+00	2.69236142e-03	9.37471360e-05
1.67500000e+00	2.70764743e-03	9.45756475e-05
1.68000000e+00	2.67584436e-03	9.37163207e-05
1.68500000e+00	2.68046912e-03	9.54312698e-05
1.69000000e+00	2.69306165e-03	9.39818880e-05
1.69500000e+00	2.66166514e-03	9.28030398e-05
1.70000000e+00	2.68346357e-03	9.45191467e-05
1.70500000e+00	2.67089694e-03	9.45100560e-05
1.71000000e+00	2.65420643e-03	9.28665387e-05
1.71500000e+00	2.64309609e-03	9.23009981e-05
1.72000000e+00	2.63833239e-03	9.29361292e-05
1.72500000e+00	2.65329191e-03	9.40170341e-05
1.73000000e+00	2.62756976e-03	9.18298145e-05
1.73500000e+00	2.63708729e-03	9.23532939e-05
1.74000000e+00	2.61611664e-03	9.19521265e-05
1.74500000e+00	2.60818519e-03	9.27050433e-05
1.75000000e+00	2.60816227e-03	9.09263016e-05
1.75500000e+00	2.60707875e-03	9.15145030e-05
1.76000000e+00	2.59233939e-03	9.10127712e-05
1.76500000e+00	2.57951549e-03	9.17030990e-05
1.77000000e+00	2.55854372e-03	8.93606481e-05
1.77500000e+00	2.59554074e-03	9.09627201e-05
1.78000000e+00	2.56176412e-03	9.00811940e-05
1.78500000e+00	2.55253727e-03	9.06412806e-05
1.79000000e+00	2.56436795e-03	8.95183032e-05
1.79500000e+00	2.55980392e-03	8.97239280e-05
1.80000000e+00	2.54106846e-03	8.95286446e-05
1.80500000e+00	2.53331347e-03	8.97932955e-05
1.81000000e+00	2.53134291e-03	8.84165705e-05
1.81500000e+00	2.50681504e-03	8.76602151e-05
1.82000000e+00	2.49738780e-03	8.79336827e-05
1.82500000e+00	2.51659562e-03	8.91224088e-05
1.83000000e+00	2.52069636e-03	8.81234216e-05
1.83500000e+00	2.49198071e-03	8.73178742e-05
1.84000000e+00	2.46652760e-03	8.69084445e-05
1.84500000e+00	2.47218464e-03	8.75521429e-05
1.85000000e+00	2.47973724e-03	8.67862097e-05
1.85500000e+00	2.42782090e-03	8.50612431e-05
1.86000000e+00	2.45185700e-03	8.65233509e-05
1.86500000e+00	2.45181638e-03	8.67035646e-05
1.87000000e+00	2.43253531e-03	8.50779138e-05
1.87500000e+00	2.45228062e-03	8.60832038e-05
1.88000000e+00	2.42665376e-03	8.54718779e-05
1.88500000e+00	2.41408444e-03	8.55969385e-05
1.89000000e+00	2.39304350e-03	8.37489972e-05
1.89500000e+00	2.40319603e-03	8.44592311e-05
1.90000000e+00	2.40670096e-03	8.49517285e-05
1.90500000e+00	2.39619996e-03	8.45576887e-05
1.91000000e+00	2.37421890e-03	8.32302435e-05
1.91500000e+00	2.36531524e-03	8.29702743e-05
1.92000000e+00	2.37304531e-03	8.36126423e-05
1.92500000e+00	2.35282295e-03	8.31653957e-05
1.93000000e+00	2.35051853e-03	8.22789615e-05
1.93500000e+00	2.34128891e-03	8.21956370e-05
1.94000000e+00	2.34559563e-03	8.30029733e-05
1.94500000e+00	2.33946502e-03	8.25407889e-05
1.95000000e+00	2.30545889e-03	8.05546648e-05
1.95500000e+00	2.31899137e-03	8.13794664e-05
1.96000000e+00	2.28447277e-03	8.06925247e-05
1.96500000e+00	2.28652608e-03	8.08312263e-05
1.97000000e+00	2.30030217e-03	8.02545494e-05
1.97500000e+00	2.30199028e-03	8.08732981e-05
1.98000000e+00	2.28317199e-03	8.06634488e-05
1.98500000e+00	2.28265182e-03	8.06735481e-05
1.99000000e+00	2.27296227e-03	7.94483605e-05
1.99500000e+00	2.26874119e-03	7.95577799e-05
2.00000000e+00	2.23571980e-03	7.90265451e-05
2.00500000e+00	2.27090088e-03	8.03787264e-05
2.01000000e+00	2.26192481e-03	8.79134718e-05
2.01500000e+00	2.20967796e-03	9.11277664e-05
2.02000000e+00	2.21491020e-03	9.73879772e-05
2.02500000e+00	2.20470102e-03	1.00784073e-04
2.03000000e+00	2.17821690e-03	1.05391741e-04
2.03500000e+00	2.17296895e-03	1.09832535e-04
2.04000000e+00	2.13665776e-03	1.12912617e-04
2.04500000e+00	2.12539704e-03	1.18276801e-04
2.05000000e+00	2.10824116e-03	1.23536440e-04
2.05500000e+00	2.14213798e-03	1.22675019e-04
2.06000000e+00	2.15350381e-03	1.07331684e-04
2.06500000e+00	2.15226843e-03	1.02380906e-04
2.07000000e+00	2.14452032e-03	9.66243037e-05
2.07500000e+00	2.13394030e-03	9.40511243e-05
2.08000000e+00	2.13523880e-03	9.38327072e-05
2.08500000e+00	2.15252654e-03	9.37110477e-05
2.09000000e+00	2.12125783e-03	8.96116162e-05
2.09500000e+00	2.13057130e-03	8.90147500e-05
2.10000000e+00	2.12941176e-03	8.83937319e-05
2.10500000e+00	2.12299098e-03	8.78846414e-05
2.11000000e+00	2.10860931e-03	8.40881610e-05
2.11500000e+00	2.09869983e-03	8.28680884e-05
2.12000000e+00	2.07728734e-03	8.15924570e-05
2.12500000e+00	2.05860187e-03	8.07754443e-05
2.13000000e+00	2.03149183e-03	7.63171197e-05
2.13500000e+00	2.03051072e-03	7.53445487e-05
2.14000000e+00	2.01217144e-03	7.41336983e-05
2.14500000e+00	1.99900830e-03	7.37480330e-05
2.15000000e+00	2.01118537e-03	7.17475328e-05
2.15500000e+00	1.98870963e-03	7.11209627e-05
2.16000000e+00	1.97026141e-03	7.01094226e-05
2.16500000e+00	1.95497137e-03	7.00039281e-05
2.17000000e+00	1.96827583e-03	6.88212525e-05
2.17500000e+00	1.95581808e-03	6.84775907e-05
2.18000000e+00	1.95743846e-03	6.88259749e-05
2.18500000e+00	1.92692502e-03	6.80852508e-05
2.19000000e+00	1.91914769e-03	6.76063193e-05
2.19500000e+00	1.90029599e-03	6.65749684e-05
2.20000000e+00	1.88075193e-03	6.60094648e-05
2.20500000e+00	1.88886853e-03	6.65384932e-05
2.21000000e+00	1.86334219e-03	6.59880617e-05
2.21500000e+00	1.86509790e-03	6.52517093e-05
2.22000000e+00	1.86291151e-03	6.50969409e-05
2.22500000e+00	1.85275689e-03	6.54111868e-05
2.23000000e+00	1.82920450e-03	6.48680944e-05
2.23500000e+00	1.82344185e-03	6.38056975e-05
2.24000000e+00	1.82354023e-03	6.37661990e-05
2.24500000e+00	1.80176675e-03	6.35072718e-05
2.25000000e+00	1.78863736e-03	6.35826111e-05
2.25500000e+00	1.77935788e-03	6.21248725e-05
2.26000000e+00	1.76849085e-03	6.19639306e-05
2.26500000e+00	1.76195919e-03	6.20153668e-05
2.27000000e+00	1.75163910e-03	6.24948136e-05
2.27500000e+00	1.74209802e-03	6.08682088e-05
2.28000000e+00	1.74549271e-03	6.10467242e-05
2.28500000e+00	1.70817766e-03	6.01425246e-05
2.29000000e+00	1.70444776e-03	6.02773184e-05
2.29500000e+00	1.69701111e-03	5.98811470e-05
2.30000000e+00	1.67391719e-03	5.84689169e-05
2.30500000e+00	1.68225105e-03	5.89293025e-05
2.31000000e+00	1.67151270e-03	5.88749293e-05
2.31500000e+00	1.66289596e-03	5.90556917e-05
2.32000000e+00	1.64696235e-03	5.73554238e-05
2.32500000e+00	1.63263044e-03	5.73141675e-05
2.33000000e+00	1.62454205e-03	5.70934926e-05
2.33500000e+00	1.60407401e-03	5.70017465e-05
2.34000000e+00	1.61754426e-03	5.64082373e-05
2.34500000e+00	1.60669832e-03	5.61596827e-05
2.35000000e+00	1.58567954e-03	5.55476861e-05
2.35500000e+00	1.58064658e-03	5.61256669e-05
2.36000000e+00	1.56269114e-03	5.46834728e-05
2.36500000e+00	1.56947120e-03	5.49047481e-05
2.37000000e+00	1.54673812e-03	5.41954518e-05
2.37500000e+00	1.53419771e-03	5.42442993e-05
2.38000000e+00	1.51520583e-03	5.37518828e-05
2.38500000e+00	1.51214326e-03	5.29157866e-05
2.39000000e+00	1.51475158e-03	5.32208947e-05
2.39500000e+00	1.50644878e-03	5.31686750e-05
2.40000000e+00	1.50249668e-03	5.37756815e-05
2.40500000e+00	1.48942527e-03	5.22564335e-05
2.41000000e+00	1.47915144e-03	5.20615783e-05
2.41500000e+00	1.48555659e-03	5.23435256e-05
2.42000000e+00	1.46055008e-03	5.21690773e-05
2.42500000e+00	1.44296239e-03	5.15196288e-05
2.43000000e+00	1.43428327e-03	5.06212130e-05
2.43500000e+00	1.43598980e-03	5.08385786e-05
2.44000000e+00	1.42571846e-03	5.06383192e-05
2.44500000e+00	1.41567175e-03	5.08720714e-05
2.45000000e+00	1.40184562e-03	4.94571949e-05
2.45500000e+00	1.40720284e-03	4.98493711e-05
2.46000000e+00	1.39958223e-03	4.98260379e-05
2.46500000e+00	1.37223136e-03	4.93758751e-05
2.47000000e+00	1.36679130e-03	4.87588784e-05
2.47500000e+00	1.37035369e-03	4.85919755e-05
2.48000000e+00	1.35556140e-03	4.85214943e-05
2.48500000e+00	1.35913982e-03	4.86114510e-05
2.49000000e+00	1.34509303e-03	4.87364499e-05
2.49500000e+00	1.33415254e-03	4.74154391e-05
2.50000000e+00	1.33322874e-03	4.75717778e-05
2.50500000e+00	1.31940607e-03	4.72048644e-05
2.51000000e+00	1.31996468e-03	4.76772986e-05
2.51500000e+00	1.30442446e-03	4.71726847e-05
2.52000000e+00	1.30683816e-03	4.68236165e-05
2.52500000e+00	1.28454525e-03	4.62165280e-05
2.53000000e+00	1.28285283e-03	4.66020479e-05
2.53500000e+00	1.27762387e-03	4.69395159e-05
2.54000000e+00	1.25949318e-03	4.55182873e-05
2.54500000e+00	1.26146297e-03	4.58090531e-05
2.55000000e+00	1.25442152e-03	4.57980203e-05
2.55500000e+00	1.25557024e-03	4.62454521e-05
2.56000000e+00	1.24405188e-03	4.60647886e-05
2.56500000e+00	1.24972591e-03	4.57984506e-05
2.57000000e+00	1.22568086e-03	4.52239433e-05
2.57500000e+00	1.22725969e-03	4.52776869e-05
2.58000000e+00	1.21614941e-03	4.56867704e-05
2.58500000e+00	1.20248497e-03	4.47606300e-05
2.59000000e+00	1.20515662e-03	4.47271274e-05
2.59500000e+00	1.19919706e-03	4.47012577e-05
2.60000000e+00	1.20497197e-03	4.52596554e-05
2.60500000e+00	1.19876999e-03	4.59702817e-05
2.61000000e+00	1.18955593e-03	5.20385764e-05
2.61500000e+00	1.16479033e-03	5.63271086e-05
2.62000000e+00	1.16861064e-03	6.20770242e-05
2.62500000e+00	1.17217177e-03	6.74257794e-05
2.63000000e+00	1.14290367e-03	7.27224447e-05
2.63500000e+00	1.16399058e-03	8.23388391e-05
2.64000000e+00	1.18708071e-03	9.22839455e-05
2.64500000e+00	1.12802159e-03	9.35780139e-05
2.65000000e+00	1.13016366e-03	9.92008166e-05
2.65500000e+00	1.14280768e-03	1.07731439e-04
2.66000000e+00	1.13994807e-03	1.15250765e-04
2.66500000e+00	1.11485319e-03	1.26987734e-04
2.67000000e+00	1.10911523e-03	1.37684761e-04
2.67500000e+00	1.12823636e-03	1.63263578e-04
2.68000000e+00	1.05966944e-03	1.77166749e-04
2.68500000e+00	1.16508438e-03	2.58134004e-04
2.69000000e+00	1.20850264e-03	4.33543038e-04
2.69500000e+00	0.00000000e+00	0.00000000e+00
2.70000000e+00	0.00000000e+00	0.00000000e+00
