% Filename : WDL7_00012_00025.h5
% Date & Time : 30-Oct-2025 14:47:34
% X-ray Energy (keV) : 13.30001
% Exposure Time (s) : 0.500
% Photodiode Value : 135963.000
% I0 of Sample : 0
% I0 of Standard : 1
% 
% q(A^-1)   I(q)    I(q)_SE
8.40000000e-01	0.00000000e+00	0.00000000e+00
8.45000000e-01	2.82573477e-03	4.94204726e-04
8.50000000e-01	2.66902665e-03	2.47899334e-04
8.55000000e-01	2.61144030e-03	2.13662117e-04
8.60000000e-01	2.60122166e-03	1.84167979e-04
8.65000000e-01	2.59770433e-03	1.69526573e-04
8.70000000e-01	2.61230584e-03	1.62472731e-04
8.75000000e-01	2.61581674e-03	1.56436253e-04
8.80000000e-01	2.62933863e-03	1.51911956e-04
8.85000000e-01	2.62391513e-03	1.43399436e-04
8.90000000e-01	2.61431589e-03	1.39927847e-04
8.95000000e-01	2.63872000e-03	1.37328575e-04
9.00000000e-01	2.61360051e-03	1.34654786e-04
9.05000000e-01	2.67173188e-03	1.31537015e-04
9.10000000e-01	2.67277388e-03	1.29174126e-04
9.15000000e-01	2.69505067e-03	1.28155454e-04
9.20000000e-01	2.69759888e-03	1.28151714e-04
9.25000000e-01	2.69708385e-03	1.22641345e-04
9.30000000e-01	2.69164013e-03	1.21108081e-04
9.35000000e-01	2.70919077e-03	1.19594419e-04
9.40000000e-01	2.68681435e-03	1.19015244e-04
9.45000000e-01	2.70820152e-03	1.16973531e-04
9.50000000e-01	2.73862365e-03	1.16497199e-04
9.55000000e-01	2.74618928e-03	1.14905542e-04
9.60000000e-01	2.78082240e-03	1.16283152e-04
9.65000000e-01	2.76221807e-03	1.13652362e-04
9.70000000e-01	2.70882356e-03	1.09672160e-04
9.75000000e-01	2.74474272e-03	1.09886217e-04
9.80000000e-01	2.74208759e-03	1.08845142e-04
9.85000000e-01	2.74824036e-03	1.09134955e-04
9.90000000e-01	2.73728145e-03	1.05462669e-04
9.95000000e-01	2.74644419e-03	1.05259648e-04
1.00000000e+00	2.73237171e-03	1.04150901e-04
1.00500000e+00	2.72778129e-03	1.04167715e-04
1.01000000e+00	2.76536680e-03	1.03243292e-04
1.01500000e+00	2.73431798e-03	1.01101830e-04
1.02000000e+00	2.73031670e-03	1.00979875e-04
1.02500000e+00	2.74842974e-03	1.00405062e-04
1.03000000e+00	2.72112047e-03	9.90056901e-05
1.03500000e+00	2.73068945e-03	9.80931706e-05
1.04000000e+00	2.73400910e-03	9.76086603e-05
1.04500000e+00	2.71417008e-03	9.68574315e-05
1.05000000e+00	2.72330012e-03	9.65772376e-05
1.05500000e+00	2.73368192e-03	9.56059186e-05
1.06000000e+00	2.72320582e-03	9.49702628e-05
1.06500000e+00	2.72450853e-03	9.49758035e-05
1.07000000e+00	2.71776030e-03	9.46869617e-05
1.07500000e+00	2.73692332e-03	9.45553396e-05
1.08000000e+00	2.74340650e-03	9.42501540e-05
1.08500000e+00	2.73641115e-03	9.41379086e-05
1.09000000e+00	2.76459321e-03	9.56653024e-05
1.09500000e+00	2.75384635e-03	9.33573856e-05
1.10000000e+00	2.76851322e-03	9.44169687e-05
1.10500000e+00	2.75647683e-03	9.43565489e-05
1.11000000e+00	2.76369964e-03	9.46991361e-05
1.11500000e+00	2.78013197e-03	9.45250508e-05
1.12000000e+00	2.80060638e-03	9.55432769e-05
1.12500000e+00	2.80262363e-03	9.55222168e-05
1.13000000e+00	2.80508204e-03	9.66391351e-05
1.13500000e+00	2.81619550e-03	9.57960002e-05
1.14000000e+00	2.82704025e-03	9.60283407e-05
1.14500000e+00	2.82902454e-03	9.69810812e-05
1.15000000e+00	2.82705364e-03	9.73501091e-05
1.15500000e+00	2.85283121e-03	9.71850203e-05
1.16000000e+00	2.84436777e-03	9.72036449e-05
1.16500000e+00	2.86152996e-03	9.76918495e-05
1.17000000e+00	2.82979630e-03	9.78769545e-05
1.17500000e+00	2.85996316e-03	9.74697527e-05
1.18000000e+00	2.87697501e-03	9.85763526e-05
1.18500000e+00	2.86848166e-03	9.80332381e-05
1.19000000e+00	2.86657364e-03	9.90677717e-05
1.19500000e+00	2.87449893e-03	9.80379947e-05
1.20000000e+00	2.88903306e-03	9.91049885e-05
1.20500000e+00	2.87417090e-03	9.83379837e-05
1.21000000e+00	2.89495655e-03	1.00393308e-04
1.21500000e+00	2.86826227e-03	9.78404015e-05
1.22000000e+00	2.89615441e-03	9.89726060e-05
1.22500000e+00	2.90185623e-03	9.96808135e-05
1.23000000e+00	2.89696817e-03	1.00128340e-04
1.23500000e+00	2.91349118e-03	1.00038055e-04
1.24000000e+00	2.90709414e-03	9.93621638e-05
1.24500000e+00	2.90459636e-03	1.00005399e-04
1.25000000e+00	2.88925099e-03	1.00033058e-04
1.25500000e+00	2.91941753e-03	9.99805313e-05
1.26000000e+00	2.91457224e-03	1.00372710e-04
1.26500000e+00	2.92069881e-03	1.00258212e-04
1.27000000e+00	2.92649992e-03	1.01881673e-04
1.27500000e+00	2.92863545e-03	1.00974310e-04
1.28000000e+00	2.91612690e-03	9.99314819e-05
1.28500000e+00	2.93612451e-03	1.01088664e-04
1.29000000e+00	2.90868598e-03	1.01084972e-04
1.29500000e+00	2.92921961e-03	1.00675006e-04
1.30000000e+00	2.92250443e-03	1.00365378e-04
1.30500000e+00	2.93739838e-03	1.01280531e-04
1.31000000e+00	2.93631870e-03	1.02464583e-04
1.31500000e+00	2.93445387e-03	1.01107101e-04
1.32000000e+00	2.93813574e-03	1.01109736e-04
1.32500000e+00	2.95540078e-03	1.01958001e-04
1.33000000e+00	2.91386700e-03	1.01861400e-04
1.33500000e+00	2.93798862e-03	1.01194093e-04
1.34000000e+00	2.94008910e-03	1.01331955e-04
1.34500000e+00	2.92826263e-03	1.01283273e-04
1.35000000e+00	2.91934870e-03	1.02015061e-04
1.35500000e+00	2.91819517e-03	1.00539397e-04
1.36000000e+00	2.91698339e-03	1.00340146e-04
1.36500000e+00	2.89940235e-03	1.00085009e-04
1.37000000e+00	2.94061531e-03	1.02982272e-04
1.37500000e+00	2.88279531e-03	9.94110090e-05
1.38000000e+00	2.92508619e-03	1.01037898e-04
1.38500000e+00	2.93019055e-03	1.01786451e-04
1.39000000e+00	2.91353922e-03	1.01930377e-04
1.39500000e+00	2.94384224e-03	1.01521852e-04
1.40000000e+00	2.94215332e-03	1.04540949e-04
1.40500000e+00	2.90371069e-03	1.10996185e-04
1.41000000e+00	2.89716190e-03	1.15935356e-04
1.41500000e+00	2.89869630e-03	1.20211270e-04
1.42000000e+00	2.84141050e-03	1.22629777e-04
1.42500000e+00	2.84528417e-03	1.26461461e-04
1.43000000e+00	2.82170650e-03	1.30206010e-04
1.43500000e+00	2.81488318e-03	1.33772093e-04
1.44000000e+00	2.79434446e-03	1.37885055e-04
1.44500000e+00	2.79716475e-03	1.41567708e-04
1.45000000e+00	2.89636047e-03	1.41758003e-04
1.45500000e+00	2.89391267e-03	1.27399898e-04
1.46000000e+00	2.86966323e-03	1.23255687e-04
1.46500000e+00	2.86907062e-03	1.21193595e-04
1.47000000e+00	2.86803368e-03	1.20808733e-04
1.47500000e+00	2.88102127e-03	1.17777293e-04
1.48000000e+00	2.85633928e-03	1.15569575e-04
1.48500000e+00	2.86296676e-03	1.15942763e-04
1.49000000e+00	2.85823851e-03	1.15957868e-04
1.49500000e+00	2.86869097e-03	1.13853062e-04
1.50000000e+00	2.89552601e-03	1.14492110e-04
1.50500000e+00	2.86215732e-03	1.13817348e-04
1.51000000e+00	2.90148290e-03	1.15561682e-04
1.51500000e+00	2.88223977e-03	1.12923813e-04
1.52000000e+00	2.89941005e-03	1.13148105e-04
1.52500000e+00	2.90536238e-03	1.13269302e-04
1.53000000e+00	2.88979653e-03	1.13417903e-04
1.53500000e+00	2.87855061e-03	1.09665713e-04
1.54000000e+00	2.88164691e-03	1.09665823e-04
1.54500000e+00	2.88303304e-03	1.09534198e-04
1.55000000e+00	2.85264295e-03	1.08052045e-04
1.55500000e+00	2.85898398e-03	1.05859792e-04
1.56000000e+00	2.82867488e-03	1.04997165e-04
1.56500000e+00	2.81428676e-03	1.03901032e-04
1.57000000e+00	2.79578609e-03	1.02484843e-04
1.57500000e+00	2.78230857e-03	1.00096039e-04
1.58000000e+00	2.80265528e-03	1.00788360e-04
1.58500000e+00	2.77599963e-03	9.96945284e-05
1.59000000e+00	2.77558960e-03	9.97208793e-05
1.59500000e+00	2.76220196e-03	9.73753662e-05
1.60000000e+00	2.77304683e-03	9.76821512e-05
1.60500000e+00	2.74540815e-03	9.67653970e-05
1.61000000e+00	2.73655733e-03	9.60573306e-05
1.61500000e+00	2.74777335e-03	9.55351176e-05
1.62000000e+00	2.73879748e-03	9.56791192e-05
1.62500000e+00	2.71646490e-03	9.60222544e-05
1.63000000e+00	2.72575330e-03	9.53406556e-05
1.63500000e+00	2.72009757e-03	9.50818198e-05
1.64000000e+00	2.70399488e-03	9.45818294e-05
1.64500000e+00	2.69947521e-03	9.54758722e-05
1.65000000e+00	2.69019192e-03	9.40942835e-05
1.65500000e+00	2.72343463e-03	9.51520603e-05
1.66000000e+00	2.68527481e-03	9.39305777e-05
1.66500000e+00	2.66871364e-03	9.49614719e-05
1.67000000e+00	2.68767134e-03	9.36312178e-05
1.67500000e+00	2.65922334e-03	9.29049288e-05
1.68000000e+00	2.67992173e-03	9.38464195e-05
1.68500000e+00	2.66295232e-03	9.48294706e-05
1.69000000e+00	2.66219971e-03	9.29487492e-05
1.69500000e+00	2.64299930e-03	9.22231574e-05
1.70000000e+00	2.64677886e-03	9.33540062e-05
1.70500000e+00	2.63605581e-03	9.33581980e-05
1.71000000e+00	2.64435764e-03	9.25016248e-05
1.71500000e+00	2.61806942e-03	9.14838029e-05
1.72000000e+00	2.62363320e-03	9.24427080e-05
1.72500000e+00	2.60976589e-03	9.25210945e-05
1.73000000e+00	2.59541689e-03	9.06664196e-05
1.73500000e+00	2.59367291e-03	9.09796109e-05
1.74000000e+00	2.58488610e-03	9.07946599e-05
1.74500000e+00	2.59779304e-03	9.23166583e-05
1.75000000e+00	2.58776006e-03	9.02761905e-05
1.75500000e+00	2.57746118e-03	9.05244436e-05
1.76000000e+00	2.57925541e-03	9.04402008e-05
1.76500000e+00	2.57011453e-03	9.12666174e-05
1.77000000e+00	2.55707117e-03	8.93652529e-05
1.77500000e+00	2.52680550e-03	8.85775866e-05
1.78000000e+00	2.54231178e-03	8.94090443e-05
1.78500000e+00	2.54125275e-03	9.02832138e-05
1.79000000e+00	2.53118596e-03	8.84680900e-05
1.79500000e+00	2.50924093e-03	8.79499999e-05
1.80000000e+00	2.51113520e-03	8.84958882e-05
1.80500000e+00	2.50617305e-03	8.88945456e-05
1.81000000e+00	2.48881561e-03	8.69773296e-05
1.81500000e+00	2.49379275e-03	8.72690346e-05
1.82000000e+00	2.50289924e-03	8.81592552e-05
1.82500000e+00	2.47561127e-03	8.76873883e-05
1.83000000e+00	2.48124379e-03	8.67999189e-05
1.83500000e+00	2.46531137e-03	8.64442301e-05
1.84000000e+00	2.47967015e-03	8.73630850e-05
1.84500000e+00	2.47793327e-03	8.77345386e-05
1.85000000e+00	2.45916461e-03	8.61185705e-05
1.85500000e+00	2.44751827e-03	8.57205296e-05
1.86000000e+00	2.45294900e-03	8.65727614e-05
1.86500000e+00	2.42778908e-03	8.58954336e-05
1.87000000e+00	2.41579191e-03	8.45204272e-05
1.87500000e+00	2.41816157e-03	8.48546973e-05
1.88000000e+00	2.39982436e-03	8.45312341e-05
1.88500000e+00	2.41421847e-03	8.56540075e-05
1.89000000e+00	2.41520447e-03	8.44618646e-05
1.89500000e+00	2.38443211e-03	8.37990793e-05
1.90000000e+00	2.37614931e-03	8.38102253e-05
1.90500000e+00	2.39164656e-03	8.44368930e-05
1.91000000e+00	2.37059594e-03	8.30467359e-05
1.91500000e+00	2.35983415e-03	8.27715897e-05
1.92000000e+00	2.35125879e-03	8.28630986e-05
1.92500000e+00	2.32198252e-03	8.19760440e-05
1.93000000e+00	2.34613142e-03	8.20972061e-05
1.93500000e+00	2.33046233e-03	8.18570465e-05
1.94000000e+00	2.33698775e-03	8.26278426e-05
1.94500000e+00	2.30629980e-03	8.13869976e-05
1.95000000e+00	2.29854637e-03	8.03159987e-05
1.95500000e+00	2.31413248e-03	8.12010487e-05
1.96000000e+00	2.27999774e-03	8.05229610e-05
1.96500000e+00	2.29001067e-03	8.09329467e-05
1.97000000e+00	2.27104203e-03	7.92304180e-05
1.97500000e+00	2.26651541e-03	7.97151585e-05
1.98000000e+00	2.25529195e-03	7.95818087e-05
1.98500000e+00	2.25933457e-03	7.99220638e-05
1.99000000e+00	2.24471274e-03	7.83391874e-05
1.99500000e+00	2.23574391e-03	7.84688438e-05
2.00000000e+00	2.23610401e-03	7.90087211e-05
2.00500000e+00	2.24097150e-03	7.93682667e-05
2.01000000e+00	2.22523339e-03	8.64318375e-05
2.01500000e+00	2.20924850e-03	9.11421632e-05
2.02000000e+00	2.18130272e-03	9.60116139e-05
2.02500000e+00	2.17838932e-03	9.96840819e-05
2.03000000e+00	2.16477338e-03	1.04836520e-04
2.03500000e+00	2.14085366e-03	1.08335510e-04
2.04000000e+00	2.15082517e-03	1.13625905e-04
2.04500000e+00	2.09249820e-03	1.16360310e-04
2.05000000e+00	2.08114149e-03	1.21533787e-04
2.05500000e+00	2.11931163e-03	1.21449390e-04
2.06000000e+00	2.14092228e-03	1.06598323e-04
2.06500000e+00	2.12901045e-03	1.01348331e-04
2.07000000e+00	2.12195438e-03	9.55764241e-05
2.07500000e+00	2.11110862e-03	9.29884658e-05
2.08000000e+00	2.12075635e-03	9.31441387e-05
2.08500000e+00	2.10449425e-03	9.17507639e-05
2.09000000e+00	2.10280718e-03	8.89608957e-05
2.09500000e+00	2.12196896e-03	8.88294774e-05
2.10000000e+00	2.10069133e-03	8.73054256e-05
2.10500000e+00	2.07875313e-03	8.60380481e-05
2.11000000e+00	2.06782168e-03	8.24483595e-05
2.11500000e+00	2.07503570e-03	8.19662935e-05
2.12000000e+00	2.06464378e-03	8.10728691e-05
2.12500000e+00	2.03030235e-03	7.95065423e-05
2.13000000e+00	2.02291898e-03	7.60900004e-05
2.13500000e+00	2.00015099e-03	7.43174147e-05
2.14000000e+00	2.00351171e-03	7.37656009e-05
2.14500000e+00	1.97982707e-03	7.30339216e-05
2.15000000e+00	1.98923759e-03	7.09768212e-05
2.15500000e+00	1.96344090e-03	7.01765634e-05
2.16000000e+00	1.95157066e-03	6.93939693e-05
2.16500000e+00	1.95205803e-03	6.99756983e-05
2.17000000e+00	1.92959110e-03	6.74525637e-05
2.17500000e+00	1.92129808e-03	6.73387283e-05
2.18000000e+00	1.93074148e-03	6.78366295e-05
2.18500000e+00	1.90683522e-03	6.74059674e-05
2.19000000e+00	1.91068710e-03	6.72890952e-05
2.19500000e+00	1.90551161e-03	6.67229717e-05
2.20000000e+00	1.88720948e-03	6.63026130e-05
2.20500000e+00	1.87208100e-03	6.58842388e-05
2.21000000e+00	1.86042235e-03	6.58570532e-05
2.21500000e+00	1.85191050e-03	6.48402019e-05
2.22000000e+00	1.83899555e-03	6.43514971e-05
2.22500000e+00	1.84616423e-03	6.51226390e-05
2.23000000e+00	1.81167431e-03	6.42585649e-05
2.23500000e+00	1.80489925e-03	6.31761319e-05
2.24000000e+00	1.79001987e-03	6.26339100e-05
2.24500000e+00	1.78423730e-03	6.28711379e-05
2.25000000e+00	1.77634889e-03	6.31802836e-05
2.25500000e+00	1.76300832e-03	6.15552441e-05
2.26000000e+00	1.75841326e-03	6.16165601e-05
2.26500000e+00	1.73584581e-03	6.10657075e-05
2.27000000e+00	1.72024431e-03	6.13921655e-05
2.27500000e+00	1.72220929e-03	6.01947710e-05
2.28000000e+00	1.73131057e-03	6.05600122e-05
2.28500000e+00	1.69914168e-03	5.98410076e-05
2.29000000e+00	1.68749310e-03	5.97379656e-05
2.29500000e+00	1.68977177e-03	5.96370560e-05
2.30000000e+00	1.65238005e-03	5.77844896e-05
2.30500000e+00	1.66786988e-03	5.84501045e-05
2.31000000e+00	1.63281242e-03	5.75689806e-05
2.31500000e+00	1.63419793e-03	5.80744738e-05
2.32000000e+00	1.62022630e-03	5.62964769e-05
2.32500000e+00	1.61940444e-03	5.67697777e-05
2.33000000e+00	1.61534150e-03	5.68179750e-05
2.33500000e+00	1.59735006e-03	5.68315956e-05
2.34000000e+00	1.59463953e-03	5.56121830e-05
2.34500000e+00	1.56262325e-03	5.46000886e-05
2.35000000e+00	1.56039610e-03	5.47010262e-05
2.35500000e+00	1.55284561e-03	5.51237339e-05
2.36000000e+00	1.54405221e-03	5.40044306e-05
2.36500000e+00	1.53698420e-03	5.37761440e-05
2.37000000e+00	1.53731155e-03	5.37896191e-05
2.37500000e+00	1.51193217e-03	5.34499257e-05
2.38000000e+00	1.48791878e-03	5.28572598e-05
2.38500000e+00	1.50156712e-03	5.25167820e-05
2.39000000e+00	1.47993155e-03	5.19323967e-05
2.39500000e+00	1.48145416e-03	5.23113379e-05
2.40000000e+00	1.45431957e-03	5.20723603e-05
2.40500000e+00	1.45576227e-03	5.10536325e-05
2.41000000e+00	1.46955771e-03	5.17543949e-05
2.41500000e+00	1.43653804e-03	5.06549345e-05
2.42000000e+00	1.42837866e-03	5.09355802e-05
2.42500000e+00	1.44037492e-03	5.13056763e-05
2.43000000e+00	1.41294662e-03	4.98666362e-05
2.43500000e+00	1.42318998e-03	5.03371087e-05
2.44000000e+00	1.39429182e-03	4.94710847e-05
2.44500000e+00	1.39005758e-03	4.99721108e-05
2.45000000e+00	1.38679251e-03	4.90055745e-05
2.45500000e+00	1.36896279e-03	4.85014370e-05
2.46000000e+00	1.35041083e-03	4.80422741e-05
2.46500000e+00	1.36305279e-03	4.90598197e-05
2.47000000e+00	1.35681874e-03	4.83481121e-05
2.47500000e+00	1.34287039e-03	4.76242540e-05
2.48000000e+00	1.32720451e-03	4.75142943e-05
2.48500000e+00	1.32679727e-03	4.74215895e-05
2.49000000e+00	1.32668300e-03	4.81141769e-05
2.49500000e+00	1.32566577e-03	4.71207234e-05
2.50000000e+00	1.29923568e-03	4.63080234e-05
2.50500000e+00	1.29152932e-03	4.63377176e-05
2.51000000e+00	1.28703307e-03	4.64621235e-05
2.51500000e+00	1.27216119e-03	4.60487144e-05
2.52000000e+00	1.27760024e-03	4.57921529e-05
2.52500000e+00	1.26483354e-03	4.55311930e-05
2.53000000e+00	1.27255472e-03	4.62547240e-05
2.53500000e+00	1.26323611e-03	4.64425010e-05
2.54000000e+00	1.23264296e-03	4.45232907e-05
2.54500000e+00	1.24390194e-03	4.52219889e-05
2.55000000e+00	1.23086844e-03	4.49405320e-05
2.55500000e+00	1.22974707e-03	4.52108876e-05
2.56000000e+00	1.21842703e-03	4.50507678e-05
2.56500000e+00	1.22795842e-03	4.49638818e-05
2.57000000e+00	1.19548725e-03	4.40202201e-05
2.57500000e+00	1.20704320e-03	4.45390056e-05
2.58000000e+00	1.18295788e-03	4.44131780e-05
2.58500000e+00	1.17458057e-03	4.37168495e-05
2.59000000e+00	1.18773068e-03	4.40892684e-05
2.59500000e+00	1.17989083e-03	4.38998552e-05
2.60000000e+00	1.15230956e-03	4.32759799e-05
2.60500000e+00	1.16226224e-03	4.45736643e-05
2.61000000e+00	1.13855642e-03	4.98141979e-05
2.61500000e+00	1.15220362e-03	5.56613205e-05
2.62000000e+00	1.14579146e-03	6.10966599e-05
2.62500000e+00	1.12020126e-03	6.44529272e-05
2.63000000e+00	1.14337351e-03	7.27647760e-05
2.63500000e+00	1.10718884e-03	7.80909977e-05
2.64000000e+00	1.15016169e-03	8.97858822e-05
2.64500000e+00	1.12654225e-03	9.35528682e-05
2.65000000e+00	1.14390781e-03	1.00638911e-04
2.65500000e+00	1.08519107e-03	1.02789049e-04
2.66000000e+00	1.11422397e-03	1.12522119e-04
2.66500000e+00	1.12510703e-03	1.27836237e-04
2.67000000e+00	1.14363693e-03	1.41239552e-04
2.67500000e+00	1.12867131e-03	1.63312880e-04
2.68000000e+00	1.02089387e-03	1.70816149e-04
2.68500000e+00	1.07271692e-03	2.39770898e-04
2.69000000e+00	1.14674749e-03	4.09855959e-04
2.69500000e+00	0.00000000e+00	0.00000000e+00
2.70000000e+00	0.00000000e+00	0.00000000e+00
