% Filename : WDL7_00010_00002.h5
% Date & Time : 30-Oct-2025 14:42:00
% X-ray Energy (keV) : 13.30001
% Exposure Time (s) : 0.500
% Photodiode Value : 135447.000
% I0 of Sample : 0
% I0 of Standard : 1
% 
% q(A^-1)   I(q)    I(q)_SE
8.40000000e-01	0.00000000e+00	0.00000000e+00
8.45000000e-01	2.73955733e-03	4.80342951e-04
8.50000000e-01	2.69503229e-03	2.49876894e-04
8.55000000e-01	2.68480096e-03	2.19588472e-04
8.60000000e-01	2.61312675e-03	1.84822046e-04
8.65000000e-01	2.59730364e-03	1.69357217e-04
8.70000000e-01	2.58011066e-03	1.60364269e-04
8.75000000e-01	2.59043625e-03	1.54991230e-04
8.80000000e-01	2.63647217e-03	1.52487690e-04
8.85000000e-01	2.60532673e-03	1.42267199e-04
8.90000000e-01	2.66271279e-03	1.42529583e-04
8.95000000e-01	2.61449453e-03	1.36063871e-04
9.00000000e-01	2.64938542e-03	1.36356521e-04
9.05000000e-01	2.65219676e-03	1.30554686e-04
9.10000000e-01	2.68071264e-03	1.29580176e-04
9.15000000e-01	2.65937416e-03	1.26614987e-04
9.20000000e-01	2.67291027e-03	1.27040757e-04
9.25000000e-01	2.69356151e-03	1.22553013e-04
9.30000000e-01	2.68019706e-03	1.20674493e-04
9.35000000e-01	2.66185526e-03	1.17455237e-04
9.40000000e-01	2.71220771e-03	1.20037635e-04
9.45000000e-01	2.70834166e-03	1.16878900e-04
9.50000000e-01	2.70678785e-03	1.15118861e-04
9.55000000e-01	2.70579455e-03	1.13005776e-04
9.60000000e-01	2.71223956e-03	1.13499388e-04
9.65000000e-01	2.69291381e-03	1.10765949e-04
9.70000000e-01	2.71915057e-03	1.10010916e-04
9.75000000e-01	2.73887458e-03	1.09609302e-04
9.80000000e-01	2.71298785e-03	1.07645296e-04
9.85000000e-01	2.71932699e-03	1.08016347e-04
9.90000000e-01	2.72467914e-03	1.04974497e-04
9.95000000e-01	2.73221042e-03	1.04760473e-04
1.00000000e+00	2.75537604e-03	1.05131945e-04
1.00500000e+00	2.74290654e-03	1.04658703e-04
1.01000000e+00	2.71951541e-03	1.01600402e-04
1.01500000e+00	2.73644243e-03	1.01184849e-04
1.02000000e+00	2.72952142e-03	1.00988228e-04
1.02500000e+00	2.72842230e-03	9.96559883e-05
1.03000000e+00	2.71885997e-03	9.89662869e-05
1.03500000e+00	2.72175497e-03	9.77644121e-05
1.04000000e+00	2.70524189e-03	9.64941259e-05
1.04500000e+00	2.71731939e-03	9.70494861e-05
1.05000000e+00	2.71467487e-03	9.63252568e-05
1.05500000e+00	2.69147461e-03	9.40985933e-05
1.06000000e+00	2.69932119e-03	9.40361006e-05
1.06500000e+00	2.71607946e-03	9.47485765e-05
1.07000000e+00	2.71873368e-03	9.46989060e-05
1.07500000e+00	2.71481706e-03	9.38222480e-05
1.08000000e+00	2.69359655e-03	9.24890761e-05
1.08500000e+00	2.73419669e-03	9.40811325e-05
1.09000000e+00	2.73911642e-03	9.46580591e-05
1.09500000e+00	2.73146258e-03	9.25657006e-05
1.10000000e+00	2.75294972e-03	9.38826428e-05
1.10500000e+00	2.78626146e-03	9.53727263e-05
1.11000000e+00	2.75624185e-03	9.43825655e-05
1.11500000e+00	2.77181620e-03	9.42880997e-05
1.12000000e+00	2.79534235e-03	9.54054800e-05
1.12500000e+00	2.78066365e-03	9.46955287e-05
1.13000000e+00	2.77172964e-03	9.54959466e-05
1.13500000e+00	2.81486815e-03	9.58855858e-05
1.14000000e+00	2.79641480e-03	9.49581402e-05
1.14500000e+00	2.82231678e-03	9.67027321e-05
1.15000000e+00	2.81514505e-03	9.70265691e-05
1.15500000e+00	2.83217417e-03	9.64514791e-05
1.16000000e+00	2.81961787e-03	9.64487146e-05
1.16500000e+00	2.84065773e-03	9.69889119e-05
1.17000000e+00	2.84434800e-03	9.83989940e-05
1.17500000e+00	2.85369974e-03	9.72892366e-05
1.18000000e+00	2.84246058e-03	9.73705089e-05
1.18500000e+00	2.86071254e-03	9.79037929e-05
1.19000000e+00	2.82166354e-03	9.74193659e-05
1.19500000e+00	2.87565834e-03	9.81432552e-05
1.20000000e+00	2.88916641e-03	9.90742935e-05
1.20500000e+00	2.85195201e-03	9.77451683e-05
1.21000000e+00	2.86187813e-03	9.93244496e-05
1.21500000e+00	2.88137346e-03	9.84001979e-05
1.22000000e+00	2.89467483e-03	9.89293431e-05
1.22500000e+00	2.87007180e-03	9.85028936e-05
1.23000000e+00	2.86890949e-03	9.92094500e-05
1.23500000e+00	2.87468945e-03	9.88147743e-05
1.24000000e+00	2.89851086e-03	9.90754751e-05
1.24500000e+00	2.88731370e-03	9.94642054e-05
1.25000000e+00	2.89252318e-03	1.00274384e-04
1.25500000e+00	2.89634852e-03	9.91713387e-05
1.26000000e+00	2.89767961e-03	9.97366470e-05
1.26500000e+00	2.91485046e-03	1.00103838e-04
1.27000000e+00	2.90735388e-03	1.01268320e-04
1.27500000e+00	2.88347641e-03	9.93226269e-05
1.28000000e+00	2.89268712e-03	9.90089951e-05
1.28500000e+00	2.89762049e-03	9.98681437e-05
1.29000000e+00	2.89722823e-03	1.00737611e-04
1.29500000e+00	2.91621111e-03	1.00319619e-04
1.30000000e+00	2.90561347e-03	9.96282807e-05
1.30500000e+00	2.90418142e-03	1.00074165e-04
1.31000000e+00	2.92422741e-03	1.02074458e-04
1.31500000e+00	2.90856353e-03	1.00269328e-04
1.32000000e+00	2.92381833e-03	1.00578228e-04
1.32500000e+00	2.90427352e-03	1.00347185e-04
1.33000000e+00	2.91627039e-03	1.01811527e-04
1.33500000e+00	2.88700163e-03	9.94378211e-05
1.34000000e+00	2.92990382e-03	1.01086003e-04
1.34500000e+00	2.88060848e-03	9.97561831e-05
1.35000000e+00	2.88450146e-03	1.00849728e-04
1.35500000e+00	2.92080559e-03	1.00686411e-04
1.36000000e+00	2.89136592e-03	9.94523981e-05
1.36500000e+00	2.90032307e-03	1.00144006e-04
1.37000000e+00	2.88749558e-03	1.01156220e-04
1.37500000e+00	2.90820996e-03	1.00326750e-04
1.38000000e+00	2.90045025e-03	1.00293098e-04
1.38500000e+00	2.91151184e-03	1.01206101e-04
1.39000000e+00	2.90505310e-03	1.01630737e-04
1.39500000e+00	2.89970621e-03	9.99557983e-05
1.40000000e+00	2.93132707e-03	1.04176941e-04
1.40500000e+00	2.90169153e-03	1.10946027e-04
1.41000000e+00	2.86503389e-03	1.14699717e-04
1.41500000e+00	2.84839756e-03	1.18158561e-04
1.42000000e+00	2.85296774e-03	1.23185136e-04
1.42500000e+00	2.81577756e-03	1.25152575e-04
1.43000000e+00	2.77902249e-03	1.28231350e-04
1.43500000e+00	2.77776674e-03	1.32096971e-04
1.44000000e+00	2.79486512e-03	1.38055872e-04
1.44500000e+00	2.75965160e-03	1.39791277e-04
1.45000000e+00	2.81528363e-03	1.37885149e-04
1.45500000e+00	2.85011568e-03	1.25465697e-04
1.46000000e+00	2.85704058e-03	1.22723379e-04
1.46500000e+00	2.84300320e-03	1.20045542e-04
1.47000000e+00	2.81857891e-03	1.18845185e-04
1.47500000e+00	2.83916562e-03	1.16154262e-04
1.48000000e+00	2.85302953e-03	1.15340303e-04
1.48500000e+00	2.84917096e-03	1.15353040e-04
1.49000000e+00	2.86840994e-03	1.16428345e-04
1.49500000e+00	2.82584814e-03	1.12139400e-04
1.50000000e+00	2.87287600e-03	1.13541504e-04
1.50500000e+00	2.85916963e-03	1.13711106e-04
1.51000000e+00	2.86062712e-03	1.13934611e-04
1.51500000e+00	2.85160747e-03	1.11749787e-04
1.52000000e+00	2.85239290e-03	1.11385407e-04
1.52500000e+00	2.86096968e-03	1.11685646e-04
1.53000000e+00	2.86650947e-03	1.12480479e-04
1.53500000e+00	2.87080719e-03	1.09542267e-04
1.54000000e+00	2.84848525e-03	1.08452845e-04
1.54500000e+00	2.85872970e-03	1.08595089e-04
1.55000000e+00	2.84758914e-03	1.07806556e-04
1.55500000e+00	2.82711475e-03	1.04683440e-04
1.56000000e+00	2.79583371e-03	1.03804563e-04
1.56500000e+00	2.80597372e-03	1.03644581e-04
1.57000000e+00	2.78768722e-03	1.02230468e-04
1.57500000e+00	2.76074763e-03	9.94574236e-05
1.58000000e+00	2.77510425e-03	9.97269621e-05
1.58500000e+00	2.76064714e-03	9.92199421e-05
1.59000000e+00	2.76501713e-03	9.94661195e-05
1.59500000e+00	2.74520998e-03	9.67980226e-05
1.60000000e+00	2.73728035e-03	9.64784918e-05
1.60500000e+00	2.70779378e-03	9.54445739e-05
1.61000000e+00	2.73397459e-03	9.59746727e-05
1.61500000e+00	2.72371451e-03	9.47864422e-05
1.62000000e+00	2.70805604e-03	9.45841380e-05
1.62500000e+00	2.69812977e-03	9.54394285e-05
1.63000000e+00	2.71069300e-03	9.47946711e-05
1.63500000e+00	2.69642960e-03	9.42307806e-05
1.64000000e+00	2.68014896e-03	9.38464928e-05
1.64500000e+00	2.68688944e-03	9.50377986e-05
1.65000000e+00	2.65492371e-03	9.29997180e-05
1.65500000e+00	2.67529384e-03	9.34452042e-05
1.66000000e+00	2.65929518e-03	9.30373013e-05
1.66500000e+00	2.65559039e-03	9.44869584e-05
1.67000000e+00	2.65417223e-03	9.25291906e-05
1.67500000e+00	2.64948669e-03	9.25142928e-05
1.68000000e+00	2.62094926e-03	9.18398479e-05
1.68500000e+00	2.63598381e-03	9.39412984e-05
1.69000000e+00	2.63175244e-03	9.18911149e-05
1.69500000e+00	2.62848334e-03	9.15994458e-05
1.70000000e+00	2.63525567e-03	9.29732756e-05
1.70500000e+00	2.61795399e-03	9.27558969e-05
1.71000000e+00	2.60527621e-03	9.10892543e-05
1.71500000e+00	2.62041212e-03	9.15388545e-05
1.72000000e+00	2.60745616e-03	9.18365294e-05
1.72500000e+00	2.60172244e-03	9.21345658e-05
1.73000000e+00	2.58449558e-03	9.03796128e-05
1.73500000e+00	2.59367759e-03	9.09202398e-05
1.74000000e+00	2.58740470e-03	9.09671767e-05
1.74500000e+00	2.56662650e-03	9.13254204e-05
1.75000000e+00	2.58574556e-03	9.01537016e-05
1.75500000e+00	2.56404386e-03	9.00507338e-05
1.76000000e+00	2.54766060e-03	8.93774664e-05
1.76500000e+00	2.54242676e-03	9.04064130e-05
1.77000000e+00	2.53485990e-03	8.85775438e-05
1.77500000e+00	2.54277135e-03	8.91381222e-05
1.78000000e+00	2.52735887e-03	8.88283568e-05
1.78500000e+00	2.51759259e-03	8.94349185e-05
1.79000000e+00	2.50168912e-03	8.73940823e-05
1.79500000e+00	2.49543944e-03	8.74401840e-05
1.80000000e+00	2.48982502e-03	8.77235088e-05
1.80500000e+00	2.46771754e-03	8.75058379e-05
1.81000000e+00	2.47772986e-03	8.66103819e-05
1.81500000e+00	2.45717379e-03	8.59216702e-05
1.82000000e+00	2.47018492e-03	8.69561170e-05
1.82500000e+00	2.45334135e-03	8.68969835e-05
1.83000000e+00	2.44910624e-03	8.56508208e-05
1.83500000e+00	2.43421940e-03	8.53414168e-05
1.84000000e+00	2.44449525e-03	8.60768464e-05
1.84500000e+00	2.43132419e-03	8.61783285e-05
1.85000000e+00	2.41412989e-03	8.45773539e-05
1.85500000e+00	2.41266008e-03	8.45852562e-05
1.86000000e+00	2.41029000e-03	8.50335425e-05
1.86500000e+00	2.40894677e-03	8.52316752e-05
1.87000000e+00	2.39432251e-03	8.37494346e-05
1.87500000e+00	2.39073862e-03	8.39063594e-05
1.88000000e+00	2.38695987e-03	8.41036553e-05
1.88500000e+00	2.39267329e-03	8.48554050e-05
1.89000000e+00	2.35243432e-03	8.22063197e-05
1.89500000e+00	2.33632148e-03	8.21758616e-05
1.90000000e+00	2.36493152e-03	8.34589126e-05
1.90500000e+00	2.33102053e-03	8.23676502e-05
1.91000000e+00	2.34552550e-03	8.22441683e-05
1.91500000e+00	2.33387795e-03	8.18053053e-05
1.92000000e+00	2.32841167e-03	8.20881985e-05
1.92500000e+00	2.29726317e-03	8.11688958e-05
1.93000000e+00	2.32674959e-03	8.14742918e-05
1.93500000e+00	2.30512282e-03	8.09185684e-05
1.94000000e+00	2.28142020e-03	8.06871581e-05
1.94500000e+00	2.28997433e-03	8.07881277e-05
1.95000000e+00	2.28995670e-03	8.01074133e-05
1.95500000e+00	2.27664488e-03	7.99865969e-05
1.96000000e+00	2.28461238e-03	8.07752637e-05
1.96500000e+00	2.24215879e-03	7.92565965e-05
1.97000000e+00	2.24539427e-03	7.83732810e-05
1.97500000e+00	2.23880616e-03	7.86920377e-05
1.98000000e+00	2.22690834e-03	7.85878179e-05
1.98500000e+00	2.22789704e-03	7.88178366e-05
1.99000000e+00	2.23441635e-03	7.80454545e-05
1.99500000e+00	2.18897131e-03	7.68422468e-05
2.00000000e+00	2.19941741e-03	7.77919437e-05
2.00500000e+00	2.23950527e-03	7.92656652e-05
2.01000000e+00	2.19817781e-03	8.53775750e-05
2.01500000e+00	2.19127589e-03	9.03638952e-05
2.02000000e+00	2.15551566e-03	9.47607938e-05
2.02500000e+00	2.13795961e-03	9.77354159e-05
2.03000000e+00	2.10878530e-03	1.02142529e-04
2.03500000e+00	2.13128290e-03	1.07755234e-04
2.04000000e+00	2.09843458e-03	1.10894132e-04
2.04500000e+00	2.10138129e-03	1.17024372e-04
2.05000000e+00	2.06915836e-03	1.20724071e-04
2.05500000e+00	2.12256448e-03	1.21608722e-04
2.06000000e+00	2.11306161e-03	1.05116914e-04
2.06500000e+00	2.09731295e-03	9.97394586e-05
2.07000000e+00	2.09525228e-03	9.45378242e-05
2.07500000e+00	2.09174127e-03	9.21416681e-05
2.08000000e+00	2.08794641e-03	9.17356046e-05
2.08500000e+00	2.09525444e-03	9.13703908e-05
2.09000000e+00	2.09886264e-03	8.87925416e-05
2.09500000e+00	2.06935922e-03	8.64476813e-05
2.10000000e+00	2.09550646e-03	8.69325352e-05
2.10500000e+00	2.06621328e-03	8.55014897e-05
2.11000000e+00	2.04923199e-03	8.17499685e-05
2.11500000e+00	2.03519003e-03	8.03695610e-05
2.12000000e+00	2.03931524e-03	8.01241546e-05
2.12500000e+00	2.02906597e-03	7.95054451e-05
2.13000000e+00	1.99475971e-03	7.49751379e-05
2.13500000e+00	1.95960332e-03	7.26860125e-05
2.14000000e+00	1.97547904e-03	7.26861044e-05
2.14500000e+00	1.94395274e-03	7.17432170e-05
2.15000000e+00	1.94871901e-03	6.95156431e-05
2.15500000e+00	1.94663452e-03	6.96260745e-05
2.16000000e+00	1.94291373e-03	6.91012979e-05
2.16500000e+00	1.92139736e-03	6.88267103e-05
2.17000000e+00	1.92516682e-03	6.73708055e-05
2.17500000e+00	1.91370987e-03	6.70459958e-05
2.18000000e+00	1.90377331e-03	6.69508757e-05
2.18500000e+00	1.87992433e-03	6.63771078e-05
2.19000000e+00	1.88202363e-03	6.62794014e-05
2.19500000e+00	1.88349458e-03	6.59715724e-05
2.20000000e+00	1.86663422e-03	6.55689380e-05
2.20500000e+00	1.86575403e-03	6.57101016e-05
2.21000000e+00	1.84843372e-03	6.54178811e-05
2.21500000e+00	1.82058085e-03	6.38548082e-05
2.22000000e+00	1.82404577e-03	6.38720400e-05
2.22500000e+00	1.82294905e-03	6.42585006e-05
2.23000000e+00	1.79034435e-03	6.34913451e-05
2.23500000e+00	1.79461770e-03	6.27800221e-05
2.24000000e+00	1.76221672e-03	6.16697632e-05
2.24500000e+00	1.78189442e-03	6.28041543e-05
2.25000000e+00	1.75244844e-03	6.23387573e-05
2.25500000e+00	1.75435041e-03	6.13032372e-05
2.26000000e+00	1.73513178e-03	6.07952558e-05
2.26500000e+00	1.72064781e-03	6.05323318e-05
2.27000000e+00	1.70786040e-03	6.08765582e-05
2.27500000e+00	1.70702993e-03	5.95585104e-05
2.28000000e+00	1.67976083e-03	5.87225634e-05
2.28500000e+00	1.68720409e-03	5.94250198e-05
2.29000000e+00	1.66955907e-03	5.91514941e-05
2.29500000e+00	1.66384374e-03	5.87793015e-05
2.30000000e+00	1.63972686e-03	5.72158126e-05
2.30500000e+00	1.62820584e-03	5.70757866e-05
2.31000000e+00	1.61920752e-03	5.71101534e-05
2.31500000e+00	1.61391144e-03	5.74577338e-05
2.32000000e+00	1.61727325e-03	5.62976127e-05
2.32500000e+00	1.58719406e-03	5.56777382e-05
2.33000000e+00	1.58278916e-03	5.56920114e-05
2.33500000e+00	1.57019130e-03	5.57328571e-05
2.34000000e+00	1.57735943e-03	5.50552492e-05
2.34500000e+00	1.56181142e-03	5.46133366e-05
2.35000000e+00	1.54684663e-03	5.42246552e-05
2.35500000e+00	1.52957859e-03	5.43590827e-05
2.36000000e+00	1.55291146e-03	5.44178518e-05
2.36500000e+00	1.51401638e-03	5.29605462e-05
2.37000000e+00	1.50451740e-03	5.26855327e-05
2.37500000e+00	1.51596113e-03	5.35424774e-05
2.38000000e+00	1.49688874e-03	5.30501363e-05
2.38500000e+00	1.48155437e-03	5.18024353e-05
2.39000000e+00	1.46770395e-03	5.15156101e-05
2.39500000e+00	1.46659635e-03	5.17715239e-05
2.40000000e+00	1.45628567e-03	5.20575485e-05
2.40500000e+00	1.44854894e-03	5.08213436e-05
2.41000000e+00	1.44476308e-03	5.08214765e-05
2.41500000e+00	1.42127676e-03	5.01307003e-05
2.42000000e+00	1.40240909e-03	5.00087836e-05
2.42500000e+00	1.41391562e-03	5.03753214e-05
2.43000000e+00	1.40958967e-03	4.97411472e-05
2.43500000e+00	1.40306374e-03	4.97416146e-05
2.44000000e+00	1.37152053e-03	4.87534280e-05
2.44500000e+00	1.36892792e-03	4.92270913e-05
2.45000000e+00	1.37668386e-03	4.86974518e-05
2.45500000e+00	1.34464821e-03	4.76540888e-05
2.46000000e+00	1.34136957e-03	4.78132846e-05
2.46500000e+00	1.33193251e-03	4.79189262e-05
2.47000000e+00	1.33419999e-03	4.75923270e-05
2.47500000e+00	1.32862960e-03	4.71189240e-05
2.48000000e+00	1.32265518e-03	4.73342172e-05
2.48500000e+00	1.30089921e-03	4.65154031e-05
2.49000000e+00	1.29499845e-03	4.69366627e-05
2.49500000e+00	1.29026201e-03	4.59258279e-05
2.50000000e+00	1.30420756e-03	4.65366193e-05
2.50500000e+00	1.28549005e-03	4.60580065e-05
2.51000000e+00	1.26787157e-03	4.58322494e-05
2.51500000e+00	1.26121851e-03	4.56590346e-05
2.52000000e+00	1.26017182e-03	4.51744252e-05
2.52500000e+00	1.25023989e-03	4.49866743e-05
2.53000000e+00	1.23424117e-03	4.49028799e-05
2.53500000e+00	1.23933549e-03	4.55491187e-05
2.54000000e+00	1.22027209e-03	4.41218792e-05
2.54500000e+00	1.22908902e-03	4.46888658e-05
2.55000000e+00	1.21276102e-03	4.42767236e-05
2.55500000e+00	1.21421468e-03	4.47436626e-05
2.56000000e+00	1.19857925e-03	4.43588040e-05
2.56500000e+00	1.20060588e-03	4.39965053e-05
2.57000000e+00	1.19581361e-03	4.41432453e-05
2.57500000e+00	1.17960364e-03	4.36075313e-05
2.58000000e+00	1.17212076e-03	4.40476264e-05
2.58500000e+00	1.17116459e-03	4.37194764e-05
2.59000000e+00	1.15851815e-03	4.29939677e-05
2.59500000e+00	1.16215805e-03	4.33512247e-05
2.60000000e+00	1.14397203e-03	4.29906796e-05
2.60500000e+00	1.16508940e-03	4.47513937e-05
2.61000000e+00	1.15479010e-03	5.04651175e-05
2.61500000e+00	1.13200125e-03	5.48109134e-05
2.62000000e+00	1.12464746e-03	5.98747213e-05
2.62500000e+00	1.11110686e-03	6.39714598e-05
2.63000000e+00	1.12478872e-03	7.15223160e-05
2.63500000e+00	1.11167037e-03	7.86895245e-05
2.64000000e+00	1.09529596e-03	8.54126273e-05
2.64500000e+00	1.12121779e-03	9.33831292e-05
2.65000000e+00	1.13741448e-03	1.00266423e-04
2.65500000e+00	1.12947075e-03	1.06348595e-04
2.66000000e+00	1.08684845e-03	1.10639707e-04
2.66500000e+00	1.06449304e-03	1.21352023e-04
2.67000000e+00	1.05937910e-03	1.31721511e-04
2.67500000e+00	1.06811800e-03	1.53339256e-04
2.68000000e+00	1.02927834e-03	1.72994949e-04
2.68500000e+00	1.08475754e-03	2.40904634e-04
2.69000000e+00	1.32824039e-03	4.74752957e-04
2.69500000e+00	0.00000000e+00	0.00000000e+00
2.70000000e+00	0.00000000e+00	0.00000000e+00
