% Filename : WDL7c_00026_00052.h5
% Date & Time : 30-Oct-2025 17:04:00
% X-ray Energy (keV) : 13.30001
% Exposure Time (s) : 0.500
% Photodiode Value : 140617.000
% I0 of Sample : 0
% I0 of Standard : 1
% 
% q(A^-1)   I(q)    I(q)_SE
8.40000000e-01	0.00000000e+00	0.00000000e+00
8.45000000e-01	2.80982434e-03	4.90945532e-04
8.50000000e-01	2.68105467e-03	2.48453558e-04
8.55000000e-01	2.60319875e-03	2.12756539e-04
8.60000000e-01	2.58646457e-03	1.83140343e-04
8.65000000e-01	2.57315164e-03	1.67888180e-04
8.70000000e-01	2.60155696e-03	1.61584312e-04
8.75000000e-01	2.63786438e-03	1.57610799e-04
8.80000000e-01	2.60871110e-03	1.50763468e-04
8.85000000e-01	2.62923716e-03	1.43692929e-04
8.90000000e-01	2.62157837e-03	1.40200945e-04
8.95000000e-01	2.64242473e-03	1.37391103e-04
9.00000000e-01	2.66702434e-03	1.37266804e-04
9.05000000e-01	2.67238468e-03	1.31721245e-04
9.10000000e-01	2.63678685e-03	1.27434349e-04
9.15000000e-01	2.65975087e-03	1.26528574e-04
9.20000000e-01	2.69188241e-03	1.27919566e-04
9.25000000e-01	2.68301697e-03	1.21968574e-04
9.30000000e-01	2.67670903e-03	1.20578508e-04
9.35000000e-01	2.68898010e-03	1.18769517e-04
9.40000000e-01	2.67575612e-03	1.18511691e-04
9.45000000e-01	2.68973574e-03	1.16057154e-04
9.50000000e-01	2.72536561e-03	1.15870740e-04
9.55000000e-01	2.71338747e-03	1.13366444e-04
9.60000000e-01	2.70856861e-03	1.13208229e-04
9.65000000e-01	2.71807088e-03	1.11856590e-04
9.70000000e-01	2.73613283e-03	1.10749974e-04
9.75000000e-01	2.73517991e-03	1.09411275e-04
9.80000000e-01	2.72957509e-03	1.08283771e-04
9.85000000e-01	2.72428066e-03	1.08121499e-04
9.90000000e-01	2.71794614e-03	1.04733008e-04
9.95000000e-01	2.75260070e-03	1.05543376e-04
1.00000000e+00	2.74747398e-03	1.04752935e-04
1.00500000e+00	2.73584908e-03	1.04448188e-04
1.01000000e+00	2.75167807e-03	1.02705933e-04
1.01500000e+00	2.74404576e-03	1.01497266e-04
1.02000000e+00	2.75422757e-03	1.01769354e-04
1.02500000e+00	2.73605190e-03	9.99557208e-05
1.03000000e+00	2.71876098e-03	9.89504779e-05
1.03500000e+00	2.72621000e-03	9.79082874e-05
1.04000000e+00	2.74372640e-03	9.78072412e-05
1.04500000e+00	2.72521764e-03	9.71866645e-05
1.05000000e+00	2.69522137e-03	9.55052319e-05
1.05500000e+00	2.70922345e-03	9.44979380e-05
1.06000000e+00	2.72115332e-03	9.47524310e-05
1.06500000e+00	2.72269845e-03	9.49915082e-05
1.07000000e+00	2.69463739e-03	9.38634918e-05
1.07500000e+00	2.73027667e-03	9.42582869e-05
1.08000000e+00	2.73206105e-03	9.39534104e-05
1.08500000e+00	2.72875026e-03	9.37281511e-05
1.09000000e+00	2.73348487e-03	9.44017226e-05
1.09500000e+00	2.74956153e-03	9.32793160e-05
1.10000000e+00	2.75604170e-03	9.39765218e-05
1.10500000e+00	2.77538506e-03	9.49313897e-05
1.11000000e+00	2.75835602e-03	9.43889494e-05
1.11500000e+00	2.77544397e-03	9.43101850e-05
1.12000000e+00	2.78953683e-03	9.51673748e-05
1.12500000e+00	2.78373728e-03	9.47605986e-05
1.13000000e+00	2.77270952e-03	9.55770990e-05
1.13500000e+00	2.80320664e-03	9.55120574e-05
1.14000000e+00	2.80719976e-03	9.53157830e-05
1.14500000e+00	2.82366705e-03	9.66956427e-05
1.15000000e+00	2.81491463e-03	9.68731792e-05
1.15500000e+00	2.84945325e-03	9.70219904e-05
1.16000000e+00	2.85322416e-03	9.74927888e-05
1.16500000e+00	2.84925592e-03	9.72323553e-05
1.17000000e+00	2.83819960e-03	9.81708430e-05
1.17500000e+00	2.88069872e-03	9.81424421e-05
1.18000000e+00	2.84966064e-03	9.74455107e-05
1.18500000e+00	2.86426411e-03	9.78536285e-05
1.19000000e+00	2.86653266e-03	9.90317744e-05
1.19500000e+00	2.88088158e-03	9.82670517e-05
1.20000000e+00	2.89431359e-03	9.92859068e-05
1.20500000e+00	2.88535285e-03	9.88724801e-05
1.21000000e+00	2.88977389e-03	1.00227966e-04
1.21500000e+00	2.88216039e-03	9.84265003e-05
1.22000000e+00	2.91401457e-03	9.96153784e-05
1.22500000e+00	2.89541898e-03	9.93689352e-05
1.23000000e+00	2.89691618e-03	1.00223089e-04
1.23500000e+00	2.89868468e-03	9.96005433e-05
1.24000000e+00	2.91557850e-03	9.97167771e-05
1.24500000e+00	2.89150566e-03	9.96166337e-05
1.25000000e+00	2.90129660e-03	1.00499072e-04
1.25500000e+00	2.91446004e-03	9.97790867e-05
1.26000000e+00	2.90145610e-03	9.99045123e-05
1.26500000e+00	2.91502715e-03	9.99861731e-05
1.27000000e+00	2.90624093e-03	1.01114860e-04
1.27500000e+00	2.91725090e-03	1.00479143e-04
1.28000000e+00	2.91182296e-03	9.96805665e-05
1.28500000e+00	2.90507465e-03	1.00015752e-04
1.29000000e+00	2.90753666e-03	1.01003296e-04
1.29500000e+00	2.92149892e-03	1.00372331e-04
1.30000000e+00	2.91227548e-03	9.98876105e-05
1.30500000e+00	2.91362425e-03	1.00491293e-04
1.31000000e+00	2.90776891e-03	1.01381771e-04
1.31500000e+00	2.93201988e-03	1.00984334e-04
1.32000000e+00	2.92550518e-03	1.00591839e-04
1.32500000e+00	2.92444891e-03	1.00950128e-04
1.33000000e+00	2.90903461e-03	1.01534253e-04
1.33500000e+00	2.92194734e-03	1.00569956e-04
1.34000000e+00	2.92851678e-03	1.00888333e-04
1.34500000e+00	2.90652113e-03	1.00527136e-04
1.35000000e+00	2.91446248e-03	1.01802201e-04
1.35500000e+00	2.92614575e-03	1.00807819e-04
1.36000000e+00	2.90287663e-03	9.98051605e-05
1.36500000e+00	2.91852215e-03	1.00719767e-04
1.37000000e+00	2.91458621e-03	1.02059632e-04
1.37500000e+00	2.92624412e-03	1.00878417e-04
1.38000000e+00	2.89755133e-03	1.00197507e-04
1.38500000e+00	2.90934538e-03	1.01100346e-04
1.39000000e+00	2.91468565e-03	1.01929757e-04
1.39500000e+00	2.89940732e-03	9.99223532e-05
1.40000000e+00	2.94546203e-03	1.04609466e-04
1.40500000e+00	2.88475111e-03	1.10187907e-04
1.41000000e+00	2.86005830e-03	1.14477920e-04
1.41500000e+00	2.84678820e-03	1.18174461e-04
1.42000000e+00	2.83715866e-03	1.22397072e-04
1.42500000e+00	2.84693981e-03	1.26590328e-04
1.43000000e+00	2.82894203e-03	1.30483604e-04
1.43500000e+00	2.78711734e-03	1.32470355e-04
1.44000000e+00	2.77948427e-03	1.37063090e-04
1.44500000e+00	2.78532129e-03	1.40893357e-04
1.45000000e+00	2.84787519e-03	1.39477766e-04
1.45500000e+00	2.87559245e-03	1.26617831e-04
1.46000000e+00	2.88640817e-03	1.24081278e-04
1.46500000e+00	2.89411996e-03	1.22012738e-04
1.47000000e+00	2.85344473e-03	1.20316929e-04
1.47500000e+00	2.86379540e-03	1.17120100e-04
1.48000000e+00	2.86427486e-03	1.15825553e-04
1.48500000e+00	2.83866364e-03	1.14855770e-04
1.49000000e+00	2.86928572e-03	1.16420583e-04
1.49500000e+00	2.87416249e-03	1.14005378e-04
1.50000000e+00	2.85903222e-03	1.13078605e-04
1.50500000e+00	2.86287975e-03	1.13817990e-04
1.51000000e+00	2.88231008e-03	1.14791874e-04
1.51500000e+00	2.88199385e-03	1.12946689e-04
1.52000000e+00	2.87580951e-03	1.12320371e-04
1.52500000e+00	2.87637586e-03	1.12195609e-04
1.53000000e+00	2.89498759e-03	1.13568795e-04
1.53500000e+00	2.88879365e-03	1.10172603e-04
1.54000000e+00	2.87846879e-03	1.09543771e-04
1.54500000e+00	2.85217901e-03	1.08265510e-04
1.55000000e+00	2.84547183e-03	1.07780660e-04
1.55500000e+00	2.85065781e-03	1.05515700e-04
1.56000000e+00	2.82176440e-03	1.04680929e-04
1.56500000e+00	2.80620225e-03	1.03561274e-04
1.57000000e+00	2.78815795e-03	1.02149728e-04
1.57500000e+00	2.80143731e-03	1.00791643e-04
1.58000000e+00	2.75605431e-03	9.89530398e-05
1.58500000e+00	2.78872972e-03	1.00165309e-04
1.59000000e+00	2.78136918e-03	9.99518419e-05
1.59500000e+00	2.74034695e-03	9.66040321e-05
1.60000000e+00	2.75404300e-03	9.69973093e-05
1.60500000e+00	2.74514027e-03	9.67806982e-05
1.61000000e+00	2.73674912e-03	9.61298154e-05
1.61500000e+00	2.74847020e-03	9.56149600e-05
1.62000000e+00	2.72383444e-03	9.51453466e-05
1.62500000e+00	2.70817065e-03	9.56408015e-05
1.63000000e+00	2.71757514e-03	9.49744349e-05
1.63500000e+00	2.71271633e-03	9.47972977e-05
1.64000000e+00	2.69739398e-03	9.44283373e-05
1.64500000e+00	2.70137685e-03	9.54636351e-05
1.65000000e+00	2.70549099e-03	9.46418287e-05
1.65500000e+00	2.70806039e-03	9.46187772e-05
1.66000000e+00	2.67788732e-03	9.36785227e-05
1.66500000e+00	2.66652189e-03	9.47557286e-05
1.67000000e+00	2.66435137e-03	9.28826461e-05
1.67500000e+00	2.66953055e-03	9.31820615e-05
1.68000000e+00	2.65547255e-03	9.30169011e-05
1.68500000e+00	2.65387441e-03	9.44533554e-05
1.69000000e+00	2.62638095e-03	9.17062440e-05
1.69500000e+00	2.64374911e-03	9.21190394e-05
1.70000000e+00	2.62332903e-03	9.24676638e-05
1.70500000e+00	2.61590985e-03	9.26529297e-05
1.71000000e+00	2.61849701e-03	9.15292857e-05
1.71500000e+00	2.62184577e-03	9.16163673e-05
1.72000000e+00	2.62894655e-03	9.25679809e-05
1.72500000e+00	2.60904785e-03	9.24307241e-05
1.73000000e+00	2.60970055e-03	9.12223436e-05
1.73500000e+00	2.61716795e-03	9.17484345e-05
1.74000000e+00	2.59055613e-03	9.10178295e-05
1.74500000e+00	2.57134654e-03	9.14125222e-05
1.75000000e+00	2.57507820e-03	8.97843647e-05
1.75500000e+00	2.58692931e-03	9.07418037e-05
1.76000000e+00	2.55127455e-03	8.94503978e-05
1.76500000e+00	2.56170463e-03	9.10270555e-05
1.77000000e+00	2.56925580e-03	8.97457507e-05
1.77500000e+00	2.52966096e-03	8.86603112e-05
1.78000000e+00	2.53710355e-03	8.91023103e-05
1.78500000e+00	2.53349616e-03	8.99600139e-05
1.79000000e+00	2.51025497e-03	8.76325572e-05
1.79500000e+00	2.51625277e-03	8.80681457e-05
1.80000000e+00	2.51957586e-03	8.87212424e-05
1.80500000e+00	2.51194874e-03	8.90832762e-05
1.81000000e+00	2.49880389e-03	8.73313186e-05
1.81500000e+00	2.49340466e-03	8.72140396e-05
1.82000000e+00	2.50325059e-03	8.80887897e-05
1.82500000e+00	2.46933096e-03	8.74310718e-05
1.83000000e+00	2.47037644e-03	8.63789196e-05
1.83500000e+00	2.46542492e-03	8.64324768e-05
1.84000000e+00	2.44926077e-03	8.63341110e-05
1.84500000e+00	2.44741481e-03	8.67125132e-05
1.85000000e+00	2.41842194e-03	8.46539626e-05
1.85500000e+00	2.44375816e-03	8.55714114e-05
1.86000000e+00	2.42194307e-03	8.54278141e-05
1.86500000e+00	2.42128163e-03	8.55807022e-05
1.87000000e+00	2.41718368e-03	8.45035514e-05
1.87500000e+00	2.40054710e-03	8.41929705e-05
1.88000000e+00	2.39867866e-03	8.45025794e-05
1.88500000e+00	2.39747517e-03	8.49042519e-05
1.89000000e+00	2.38038657e-03	8.31719562e-05
1.89500000e+00	2.36645386e-03	8.32435200e-05
1.90000000e+00	2.38615383e-03	8.40417302e-05
1.90500000e+00	2.34745875e-03	8.28700613e-05
1.91000000e+00	2.35248146e-03	8.24029647e-05
1.91500000e+00	2.33839821e-03	8.20286822e-05
1.92000000e+00	2.35126582e-03	8.30007261e-05
1.92500000e+00	2.32501479e-03	8.20529746e-05
1.93000000e+00	2.32668107e-03	8.14183731e-05
1.93500000e+00	2.31827060e-03	8.13644748e-05
1.94000000e+00	2.32263578e-03	8.22099096e-05
1.94500000e+00	2.29002354e-03	8.07835826e-05
1.95000000e+00	2.28594780e-03	7.99116570e-05
1.95500000e+00	2.27270902e-03	7.97803908e-05
1.96000000e+00	2.25745903e-03	7.97022540e-05
1.96500000e+00	2.26765301e-03	8.00798624e-05
1.97000000e+00	2.26649561e-03	7.91078468e-05
1.97500000e+00	2.27163943e-03	7.98226091e-05
1.98000000e+00	2.25524951e-03	7.96592576e-05
1.98500000e+00	2.24661267e-03	7.94837789e-05
1.99000000e+00	2.23503990e-03	7.80374052e-05
1.99500000e+00	2.22074299e-03	7.79661181e-05
2.00000000e+00	2.23445991e-03	7.89361878e-05
2.00500000e+00	2.23532060e-03	7.90941498e-05
2.01000000e+00	2.20629066e-03	8.57255144e-05
2.01500000e+00	2.21504467e-03	9.13062627e-05
2.02000000e+00	2.16366298e-03	9.53412870e-05
2.02500000e+00	2.16376871e-03	9.91385986e-05
2.03000000e+00	2.12435486e-03	1.02770436e-04
2.03500000e+00	2.12335646e-03	1.07303743e-04
2.04000000e+00	2.13744861e-03	1.12874568e-04
2.04500000e+00	2.11929827e-03	1.17784664e-04
2.05000000e+00	2.10056882e-03	1.22734154e-04
2.05500000e+00	2.12453415e-03	1.21498438e-04
2.06000000e+00	2.12437733e-03	1.05697654e-04
2.06500000e+00	2.10941996e-03	1.00421327e-04
2.07000000e+00	2.11394504e-03	9.52020299e-05
2.07500000e+00	2.10684678e-03	9.26557905e-05
2.08000000e+00	2.10524258e-03	9.24775352e-05
2.08500000e+00	2.08610746e-03	9.08340037e-05
2.09000000e+00	2.10778508e-03	8.91279253e-05
2.09500000e+00	2.11756077e-03	8.84618928e-05
2.10000000e+00	2.10179620e-03	8.72366213e-05
2.10500000e+00	2.09015873e-03	8.64618970e-05
2.11000000e+00	2.07963064e-03	8.28855375e-05
2.11500000e+00	2.03783140e-03	8.03384004e-05
2.12000000e+00	2.05655832e-03	8.07569511e-05
2.12500000e+00	2.02511189e-03	7.93681437e-05
2.13000000e+00	2.03299707e-03	7.64167384e-05
2.13500000e+00	2.03049073e-03	7.53446611e-05
2.14000000e+00	1.98455522e-03	7.29698362e-05
2.14500000e+00	1.99610904e-03	7.36143381e-05
2.15000000e+00	1.98016724e-03	7.06712309e-05
2.15500000e+00	1.96037095e-03	7.00550056e-05
2.16000000e+00	1.95675492e-03	6.96098996e-05
2.16500000e+00	1.93302617e-03	6.92095668e-05
2.17000000e+00	1.92709389e-03	6.73011847e-05
2.17500000e+00	1.94261684e-03	6.80323314e-05
2.18000000e+00	1.92788629e-03	6.77135074e-05
2.18500000e+00	1.91127817e-03	6.74626187e-05
2.19000000e+00	1.89219716e-03	6.66457943e-05
2.19500000e+00	1.90533658e-03	6.67185924e-05
2.20000000e+00	1.86425242e-03	6.53827206e-05
2.20500000e+00	1.85069186e-03	6.51019086e-05
2.21000000e+00	1.85938396e-03	6.58039719e-05
2.21500000e+00	1.84950725e-03	6.47315069e-05
2.22000000e+00	1.83060833e-03	6.39960151e-05
2.22500000e+00	1.82712368e-03	6.43805146e-05
2.23000000e+00	1.82284897e-03	6.45757644e-05
2.23500000e+00	1.79660650e-03	6.28909825e-05
2.24000000e+00	1.78831778e-03	6.26136162e-05
2.24500000e+00	1.79057652e-03	6.31144084e-05
2.25000000e+00	1.77089658e-03	6.29818147e-05
2.25500000e+00	1.75965800e-03	6.13513606e-05
2.26000000e+00	1.75579950e-03	6.15419393e-05
2.26500000e+00	1.73711342e-03	6.10534666e-05
2.27000000e+00	1.71952151e-03	6.13449055e-05
2.27500000e+00	1.70853580e-03	5.96627403e-05
2.28000000e+00	1.70133984e-03	5.94919375e-05
2.28500000e+00	1.69806508e-03	5.97265043e-05
2.29000000e+00	1.68635076e-03	5.97143894e-05
2.29500000e+00	1.65908005e-03	5.85315667e-05
2.30000000e+00	1.67784818e-03	5.85401395e-05
2.30500000e+00	1.65171892e-03	5.78497129e-05
2.31000000e+00	1.63899238e-03	5.77031505e-05
2.31500000e+00	1.63109683e-03	5.78832771e-05
2.32000000e+00	1.62327384e-03	5.64222502e-05
2.32500000e+00	1.61139291e-03	5.65313599e-05
2.33000000e+00	1.60389645e-03	5.64115452e-05
2.33500000e+00	1.58630259e-03	5.63278196e-05
2.34000000e+00	1.56178232e-03	5.45105770e-05
2.34500000e+00	1.56993177e-03	5.48129518e-05
2.35000000e+00	1.56657492e-03	5.49180446e-05
2.35500000e+00	1.53609732e-03	5.44511062e-05
2.36000000e+00	1.53013529e-03	5.36143532e-05
2.36500000e+00	1.51494366e-03	5.29927598e-05
2.37000000e+00	1.50828459e-03	5.27644243e-05
2.37500000e+00	1.52143915e-03	5.37071998e-05
2.38000000e+00	1.49505343e-03	5.30498001e-05
2.38500000e+00	1.50156514e-03	5.24994387e-05
2.39000000e+00	1.48736792e-03	5.21257349e-05
2.39500000e+00	1.47482221e-03	5.20000234e-05
2.40000000e+00	1.46599794e-03	5.24135225e-05
2.40500000e+00	1.46280516e-03	5.13329593e-05
2.41000000e+00	1.44611116e-03	5.09046134e-05
2.41500000e+00	1.43223949e-03	5.03598689e-05
2.42000000e+00	1.42375842e-03	5.08365458e-05
2.42500000e+00	1.41911400e-03	5.05187256e-05
2.43000000e+00	1.40644115e-03	4.96416352e-05
2.43500000e+00	1.39991165e-03	4.95983274e-05
2.44000000e+00	1.40380204e-03	4.97839542e-05
2.44500000e+00	1.36303656e-03	4.90007037e-05
2.45000000e+00	1.37159889e-03	4.84006574e-05
2.45500000e+00	1.36050622e-03	4.81522629e-05
2.46000000e+00	1.37204786e-03	4.89208319e-05
2.46500000e+00	1.35955038e-03	4.89331600e-05
2.47000000e+00	1.33428010e-03	4.74835116e-05
2.47500000e+00	1.33336562e-03	4.72173158e-05
2.48000000e+00	1.31013772e-03	4.68550227e-05
2.48500000e+00	1.31698637e-03	4.71143356e-05
2.49000000e+00	1.32910191e-03	4.81761521e-05
2.49500000e+00	1.28816408e-03	4.57571703e-05
2.50000000e+00	1.28501300e-03	4.57711342e-05
2.50500000e+00	1.28076873e-03	4.59363817e-05
2.51000000e+00	1.27169395e-03	4.58785283e-05
2.51500000e+00	1.28330971e-03	4.64210761e-05
2.52000000e+00	1.27237504e-03	4.55356105e-05
2.52500000e+00	1.26352385e-03	4.54689546e-05
2.53000000e+00	1.25712059e-03	4.56557746e-05
2.53500000e+00	1.23860644e-03	4.55987840e-05
2.54000000e+00	1.23512883e-03	4.46250730e-05
2.54500000e+00	1.22460694e-03	4.44524315e-05
2.55000000e+00	1.22386395e-03	4.46892727e-05
2.55500000e+00	1.21906858e-03	4.48730953e-05
2.56000000e+00	1.21619796e-03	4.49637021e-05
2.56500000e+00	1.20476697e-03	4.41191482e-05
2.57000000e+00	1.19403592e-03	4.39926055e-05
2.57500000e+00	1.17940629e-03	4.35636224e-05
2.58000000e+00	1.18287281e-03	4.43835461e-05
2.58500000e+00	1.18298007e-03	4.40887723e-05
2.59000000e+00	1.18118043e-03	4.37665895e-05
2.59500000e+00	1.16914641e-03	4.35156953e-05
2.60000000e+00	1.15446875e-03	4.33808064e-05
2.60500000e+00	1.15797278e-03	4.43778813e-05
2.61000000e+00	1.14422637e-03	4.99563798e-05
2.61500000e+00	1.14005663e-03	5.50629406e-05
2.62000000e+00	1.14253944e-03	6.08477398e-05
2.62500000e+00	1.11745790e-03	6.43446676e-05
2.63000000e+00	1.10755390e-03	7.03304915e-05
2.63500000e+00	1.12725402e-03	7.96164132e-05
2.64000000e+00	1.11234500e-03	8.63689011e-05
2.64500000e+00	1.12013137e-03	9.34098203e-05
2.65000000e+00	1.09295197e-03	9.60941726e-05
2.65500000e+00	1.10409542e-03	1.04249260e-04
2.66000000e+00	1.09716742e-03	1.10822743e-04
2.66500000e+00	1.08285583e-03	1.22857519e-04
2.67000000e+00	1.07579509e-03	1.32774872e-04
2.67500000e+00	1.10171019e-03	1.58299769e-04
2.68000000e+00	1.01526957e-03	1.71088945e-04
2.68500000e+00	1.07924417e-03	2.39804678e-04
2.69000000e+00	1.14392042e-03	4.13487222e-04
2.69500000e+00	0.00000000e+00	0.00000000e+00
2.70000000e+00	0.00000000e+00	0.00000000e+00
