% Filename : WDL7c_00027_00010.h5
% Date & Time : 30-Oct-2025 17:06:52
% X-ray Energy (keV) : 13.30001
% Exposure Time (s) : 0.500
% Photodiode Value : 140778.000
% I0 of Sample : 0
% I0 of Standard : 1
% 
% q(A^-1)   I(q)    I(q)_SE
8.40000000e-01	0.00000000e+00	0.00000000e+00
8.45000000e-01	2.91078237e-03	5.09930388e-04
8.50000000e-01	2.81180553e-03	2.61268377e-04
8.55000000e-01	2.72801670e-03	2.23097530e-04
8.60000000e-01	2.73742570e-03	1.93446815e-04
8.65000000e-01	2.71159635e-03	1.76604762e-04
8.70000000e-01	2.74579284e-03	1.70669186e-04
8.75000000e-01	2.71880684e-03	1.62546652e-04
8.80000000e-01	2.74647539e-03	1.58718972e-04
8.85000000e-01	2.73258009e-03	1.49364752e-04
8.90000000e-01	2.75622226e-03	1.47341229e-04
8.95000000e-01	2.78644440e-03	1.44782687e-04
9.00000000e-01	2.76964205e-03	1.42658858e-04
9.05000000e-01	2.80155125e-03	1.37926148e-04
9.10000000e-01	2.79827873e-03	1.35231306e-04
9.15000000e-01	2.80174191e-03	1.33137763e-04
9.20000000e-01	2.79357760e-03	1.32757796e-04
9.25000000e-01	2.81807019e-03	1.28045285e-04
9.30000000e-01	2.81795555e-03	1.26753235e-04
9.35000000e-01	2.84518483e-03	1.25477924e-04
9.40000000e-01	2.83685835e-03	1.25518335e-04
9.45000000e-01	2.85321457e-03	1.23189106e-04
9.50000000e-01	2.83488011e-03	1.20540229e-04
9.55000000e-01	2.87389760e-03	1.19917933e-04
9.60000000e-01	2.86212442e-03	1.19556221e-04
9.65000000e-01	2.85289214e-03	1.17221305e-04
9.70000000e-01	2.90146186e-03	1.17259623e-04
9.75000000e-01	2.85739390e-03	1.14284188e-04
9.80000000e-01	2.87580612e-03	1.14075805e-04
9.85000000e-01	2.85358320e-03	1.13230393e-04
9.90000000e-01	2.88987774e-03	1.11219721e-04
9.95000000e-01	2.89609529e-03	1.10976897e-04
1.00000000e+00	2.88906544e-03	1.10082359e-04
1.00500000e+00	2.89595662e-03	1.10343704e-04
1.01000000e+00	2.90115357e-03	1.08229644e-04
1.01500000e+00	2.90049655e-03	1.07220391e-04
1.02000000e+00	2.89634876e-03	1.06981556e-04
1.02500000e+00	2.90510583e-03	1.06063631e-04
1.03000000e+00	2.87495070e-03	1.04535743e-04
1.03500000e+00	2.88595166e-03	1.03373530e-04
1.04000000e+00	2.87599422e-03	1.02452926e-04
1.04500000e+00	2.87359813e-03	1.02411607e-04
1.05000000e+00	2.88050121e-03	1.01996148e-04
1.05500000e+00	2.88459891e-03	1.00557430e-04
1.06000000e+00	2.87284995e-03	9.98966976e-05
1.06500000e+00	2.90095944e-03	1.00967100e-04
1.07000000e+00	2.89812783e-03	1.00742318e-04
1.07500000e+00	2.90829299e-03	1.00365971e-04
1.08000000e+00	2.90501920e-03	9.96034208e-05
1.08500000e+00	2.91321396e-03	9.99768564e-05
1.09000000e+00	2.90984552e-03	1.00384574e-04
1.09500000e+00	2.91618094e-03	9.86436773e-05
1.10000000e+00	2.92786148e-03	9.97130091e-05
1.10500000e+00	2.94660136e-03	1.00548055e-04
1.11000000e+00	2.94605637e-03	1.00777903e-04
1.11500000e+00	2.95599433e-03	1.00328548e-04
1.12000000e+00	2.95774894e-03	1.00774467e-04
1.12500000e+00	2.97056148e-03	1.01038399e-04
1.13000000e+00	2.98676557e-03	1.02802808e-04
1.13500000e+00	2.97228116e-03	1.01068674e-04
1.14000000e+00	3.00657802e-03	1.02082231e-04
1.14500000e+00	3.00959516e-03	1.02944073e-04
1.15000000e+00	3.00997245e-03	1.03476640e-04
1.15500000e+00	3.01051042e-03	1.02394794e-04
1.16000000e+00	3.02191645e-03	1.03132953e-04
1.16500000e+00	3.02590931e-03	1.03109666e-04
1.17000000e+00	3.04847924e-03	1.05202723e-04
1.17500000e+00	3.05007106e-03	1.03659848e-04
1.18000000e+00	3.06686338e-03	1.04806695e-04
1.18500000e+00	3.06376174e-03	1.04565207e-04
1.19000000e+00	3.07205709e-03	1.05951622e-04
1.19500000e+00	3.07677505e-03	1.04807935e-04
1.20000000e+00	3.08195647e-03	1.05577649e-04
1.20500000e+00	3.09660914e-03	1.05868189e-04
1.21000000e+00	3.07907849e-03	1.06655403e-04
1.21500000e+00	3.09744329e-03	1.05606040e-04
1.22000000e+00	3.11395967e-03	1.06241351e-04
1.22500000e+00	3.12558743e-03	1.07094635e-04
1.23000000e+00	3.09120194e-03	1.06642355e-04
1.23500000e+00	3.12964231e-03	1.07299807e-04
1.24000000e+00	3.11970250e-03	1.06601824e-04
1.24500000e+00	3.11237755e-03	1.06988833e-04
1.25000000e+00	3.11462590e-03	1.07725224e-04
1.25500000e+00	3.13403421e-03	1.07148759e-04
1.26000000e+00	3.14284159e-03	1.08048714e-04
1.26500000e+00	3.14577354e-03	1.07775486e-04
1.27000000e+00	3.12869033e-03	1.08855105e-04
1.27500000e+00	3.13970378e-03	1.08082373e-04
1.28000000e+00	3.15995315e-03	1.08168112e-04
1.28500000e+00	3.16327368e-03	1.08733265e-04
1.29000000e+00	3.16665602e-03	1.09850509e-04
1.29500000e+00	3.14983069e-03	1.08063484e-04
1.30000000e+00	3.16222780e-03	1.08402501e-04
1.30500000e+00	3.16557405e-03	1.08978297e-04
1.31000000e+00	3.16532319e-03	1.10249557e-04
1.31500000e+00	3.15916495e-03	1.08705701e-04
1.32000000e+00	3.14276273e-03	1.07974700e-04
1.32500000e+00	3.14388581e-03	1.08379870e-04
1.33000000e+00	3.14829622e-03	1.09759759e-04
1.33500000e+00	3.16994971e-03	1.09078749e-04
1.34000000e+00	3.18021743e-03	1.09531219e-04
1.34500000e+00	3.18117607e-03	1.09931285e-04
1.35000000e+00	3.17587215e-03	1.10787413e-04
1.35500000e+00	3.15563937e-03	1.08615712e-04
1.36000000e+00	3.14768123e-03	1.08239478e-04
1.36500000e+00	3.16155183e-03	1.08953906e-04
1.37000000e+00	3.14878409e-03	1.10182979e-04
1.37500000e+00	3.15299497e-03	1.08620395e-04
1.38000000e+00	3.17662414e-03	1.09655629e-04
1.38500000e+00	3.16592995e-03	1.09918386e-04
1.39000000e+00	3.15246747e-03	1.10153629e-04
1.39500000e+00	3.16104205e-03	1.08844194e-04
1.40000000e+00	3.23913588e-03	1.14865281e-04
1.40500000e+00	3.14406102e-03	1.20093904e-04
1.41000000e+00	3.15112955e-03	1.25923710e-04
1.41500000e+00	3.09954855e-03	1.28459274e-04
1.42000000e+00	3.11092452e-03	1.34059607e-04
1.42500000e+00	3.09992376e-03	1.37562125e-04
1.43000000e+00	3.08782712e-03	1.42178401e-04
1.43500000e+00	3.07754774e-03	1.46104066e-04
1.44000000e+00	3.03877909e-03	1.49666903e-04
1.44500000e+00	3.06196652e-03	1.55022399e-04
1.45000000e+00	3.13279913e-03	1.53361612e-04
1.45500000e+00	3.14378539e-03	1.37989015e-04
1.46000000e+00	3.15163887e-03	1.35279827e-04
1.46500000e+00	3.11501390e-03	1.31289496e-04
1.47000000e+00	3.11604417e-03	1.31096306e-04
1.47500000e+00	3.13794294e-03	1.28062489e-04
1.48000000e+00	3.11505392e-03	1.25861638e-04
1.48500000e+00	3.12932289e-03	1.26498541e-04
1.49000000e+00	3.14727720e-03	1.27497695e-04
1.49500000e+00	3.11017952e-03	1.23234763e-04
1.50000000e+00	3.13758336e-03	1.23924647e-04
1.50500000e+00	3.15669119e-03	1.25337673e-04
1.51000000e+00	3.15678888e-03	1.25674012e-04
1.51500000e+00	3.20453910e-03	1.25389173e-04
1.52000000e+00	3.17954722e-03	1.24111138e-04
1.52500000e+00	3.18493508e-03	1.24050995e-04
1.53000000e+00	3.17162509e-03	1.24342410e-04
1.53500000e+00	3.15730822e-03	1.20177134e-04
1.54000000e+00	3.11966870e-03	1.18598612e-04
1.54500000e+00	3.15688361e-03	1.19759130e-04
1.55000000e+00	3.15226926e-03	1.19314332e-04
1.55500000e+00	3.10560505e-03	1.14874952e-04
1.56000000e+00	3.10750011e-03	1.15179357e-04
1.56500000e+00	3.06338843e-03	1.12980258e-04
1.57000000e+00	3.05930998e-03	1.12043827e-04
1.57500000e+00	3.06746433e-03	1.10271019e-04
1.58000000e+00	3.03396554e-03	1.08913147e-04
1.58500000e+00	3.02744562e-03	1.08658097e-04
1.59000000e+00	3.04250635e-03	1.09227313e-04
1.59500000e+00	3.04079880e-03	1.07074928e-04
1.60000000e+00	3.02338012e-03	1.06451518e-04
1.60500000e+00	3.01630414e-03	1.06257504e-04
1.61000000e+00	2.98769514e-03	1.04785260e-04
1.61500000e+00	3.00671128e-03	1.04505832e-04
1.62000000e+00	2.99156924e-03	1.04335241e-04
1.62500000e+00	2.99271079e-03	1.05646122e-04
1.63000000e+00	2.97803632e-03	1.04005554e-04
1.63500000e+00	2.98180874e-03	1.04099772e-04
1.64000000e+00	2.98775971e-03	1.04404318e-04
1.64500000e+00	2.96017852e-03	1.04624900e-04
1.65000000e+00	2.97062882e-03	1.03725980e-04
1.65500000e+00	2.95766492e-03	1.03192458e-04
1.66000000e+00	2.95638259e-03	1.03243788e-04
1.66500000e+00	2.94024996e-03	1.04468283e-04
1.67000000e+00	2.92977649e-03	1.01903761e-04
1.67500000e+00	2.91588150e-03	1.01714073e-04
1.68000000e+00	2.91712799e-03	1.02083467e-04
1.68500000e+00	2.91928975e-03	1.03865986e-04
1.69000000e+00	2.92951457e-03	1.02225641e-04
1.69500000e+00	2.89290305e-03	1.00793951e-04
1.70000000e+00	2.91611953e-03	1.02644068e-04
1.70500000e+00	2.89025062e-03	1.02231284e-04
1.71000000e+00	2.87170756e-03	1.00301780e-04
1.71500000e+00	2.86611397e-03	1.00066081e-04
1.72000000e+00	2.86279839e-03	1.00749637e-04
1.72500000e+00	2.85548217e-03	1.01120890e-04
1.73000000e+00	2.86324853e-03	9.99964253e-05
1.73500000e+00	2.85199573e-03	9.98365672e-05
1.74000000e+00	2.85156287e-03	1.00098683e-04
1.74500000e+00	2.84996284e-03	1.01158807e-04
1.75000000e+00	2.84439075e-03	9.90689474e-05
1.75500000e+00	2.83618373e-03	9.94418471e-05
1.76000000e+00	2.81913776e-03	9.87517606e-05
1.76500000e+00	2.82125937e-03	1.00084148e-04
1.77000000e+00	2.80630753e-03	9.79871331e-05
1.77500000e+00	2.78775065e-03	9.75476894e-05
1.78000000e+00	2.78145091e-03	9.76932910e-05
1.78500000e+00	2.78400894e-03	9.88069774e-05
1.79000000e+00	2.78200604e-03	9.70886615e-05
1.79500000e+00	2.78059910e-03	9.73242213e-05
1.80000000e+00	2.78536594e-03	9.80768338e-05
1.80500000e+00	2.76843155e-03	9.80546246e-05
1.81000000e+00	2.76304950e-03	9.64032175e-05
1.81500000e+00	2.71745109e-03	9.49408961e-05
1.82000000e+00	2.73390614e-03	9.62307520e-05
1.82500000e+00	2.73557916e-03	9.67411391e-05
1.83000000e+00	2.70465636e-03	9.44828569e-05
1.83500000e+00	2.72920573e-03	9.54890186e-05
1.84000000e+00	2.70351865e-03	9.51992715e-05
1.84500000e+00	2.70248885e-03	9.57017081e-05
1.85000000e+00	2.70113979e-03	9.44722812e-05
1.85500000e+00	2.67843194e-03	9.37728640e-05
1.86000000e+00	2.68250892e-03	9.45733984e-05
1.86500000e+00	2.66541081e-03	9.41691194e-05
1.87000000e+00	2.63879005e-03	9.22412839e-05
1.87500000e+00	2.66401185e-03	9.34165519e-05
1.88000000e+00	2.66509259e-03	9.38320501e-05
1.88500000e+00	2.61090378e-03	9.24398971e-05
1.89000000e+00	2.61622097e-03	9.13774884e-05
1.89500000e+00	2.61922108e-03	9.19826012e-05
1.90000000e+00	2.59842829e-03	9.15324833e-05
1.90500000e+00	2.59784949e-03	9.15868850e-05
1.91000000e+00	2.59560452e-03	9.08836418e-05
1.91500000e+00	2.57998537e-03	9.03947991e-05
1.92000000e+00	2.56001031e-03	9.02081479e-05
1.92500000e+00	2.58827329e-03	9.13773506e-05
1.93000000e+00	2.55821704e-03	8.94199269e-05
1.93500000e+00	2.54792556e-03	8.93511039e-05
1.94000000e+00	2.53011690e-03	8.94480062e-05
1.94500000e+00	2.53945101e-03	8.94951890e-05
1.95000000e+00	2.51746310e-03	8.79506045e-05
1.95500000e+00	2.51683422e-03	8.82281666e-05
1.96000000e+00	2.51482333e-03	8.87333562e-05
1.96500000e+00	2.51924590e-03	8.88708653e-05
1.97000000e+00	2.51262030e-03	8.76652403e-05
1.97500000e+00	2.49118196e-03	8.74478312e-05
1.98000000e+00	2.48542651e-03	8.76350083e-05
1.98500000e+00	2.49537949e-03	8.81175227e-05
1.99000000e+00	2.46640466e-03	8.60492382e-05
1.99500000e+00	2.44952320e-03	8.58345677e-05
2.00000000e+00	2.44337876e-03	8.62072847e-05
2.00500000e+00	2.44102330e-03	8.63587207e-05
2.01000000e+00	2.44012354e-03	9.46841484e-05
2.01500000e+00	2.43420922e-03	1.00319995e-04
2.02000000e+00	2.43330735e-03	1.06791814e-04
2.02500000e+00	2.38136272e-03	1.08755245e-04
2.03000000e+00	2.37185697e-03	1.14759837e-04
2.03500000e+00	2.35146730e-03	1.18765654e-04
2.04000000e+00	2.35388232e-03	1.24341565e-04
2.04500000e+00	2.32963790e-03	1.29227158e-04
2.05000000e+00	2.33417718e-03	1.36052513e-04
2.05500000e+00	2.35869513e-03	1.34782876e-04
2.06000000e+00	2.37846351e-03	1.18162442e-04
2.06500000e+00	2.35328941e-03	1.11902325e-04
2.07000000e+00	2.35700299e-03	1.05998119e-04
2.07500000e+00	2.31547451e-03	1.01765293e-04
2.08000000e+00	2.32763079e-03	1.02079406e-04
2.08500000e+00	2.32864105e-03	1.01343655e-04
2.09000000e+00	2.30746518e-03	9.74824183e-05
2.09500000e+00	2.33492212e-03	9.75086357e-05
2.10000000e+00	2.31413407e-03	9.59987499e-05
2.10500000e+00	2.29553344e-03	9.49550971e-05
2.11000000e+00	2.30403891e-03	9.18173045e-05
2.11500000e+00	2.28524548e-03	9.01189664e-05
2.12000000e+00	2.25209814e-03	8.83486165e-05
2.12500000e+00	2.23816860e-03	8.75129494e-05
2.13000000e+00	2.24255720e-03	8.41258126e-05
2.13500000e+00	2.19295032e-03	8.12513232e-05
2.14000000e+00	2.19200579e-03	8.05703392e-05
2.14500000e+00	2.18706319e-03	8.06009009e-05
2.15000000e+00	2.18442858e-03	7.78695965e-05
2.15500000e+00	2.15355368e-03	7.68160231e-05
2.16000000e+00	2.16836152e-03	7.69190846e-05
2.16500000e+00	2.17028156e-03	7.76230677e-05
2.17000000e+00	2.13390066e-03	7.45420145e-05
2.17500000e+00	2.12893592e-03	7.44764953e-05
2.18000000e+00	2.11506844e-03	7.42651940e-05
2.18500000e+00	2.12131601e-03	7.47758938e-05
2.19000000e+00	2.09050532e-03	7.35008183e-05
2.19500000e+00	2.10099987e-03	7.34537349e-05
2.20000000e+00	2.08655841e-03	7.31375050e-05
2.20500000e+00	2.07855163e-03	7.31166866e-05
2.21000000e+00	2.06926409e-03	7.30907326e-05
2.21500000e+00	2.05618253e-03	7.19176663e-05
2.22000000e+00	2.05155813e-03	7.16467294e-05
2.22500000e+00	2.01976428e-03	7.11818558e-05
2.23000000e+00	2.00558902e-03	7.09932191e-05
2.23500000e+00	2.02249605e-03	7.06019721e-05
2.24000000e+00	1.98354699e-03	6.93264722e-05
2.24500000e+00	1.96876782e-03	6.93120293e-05
2.25000000e+00	1.97521730e-03	7.00575962e-05
2.25500000e+00	1.94399860e-03	6.77686276e-05
2.26000000e+00	1.94540166e-03	6.80603105e-05
2.26500000e+00	1.93874973e-03	6.80799275e-05
2.27000000e+00	1.90568020e-03	6.79200803e-05
2.27500000e+00	1.90173869e-03	6.62996600e-05
2.28000000e+00	1.89312836e-03	6.60613822e-05
2.28500000e+00	1.88093897e-03	6.61519897e-05
2.29000000e+00	1.87940201e-03	6.63637948e-05
2.29500000e+00	1.85608638e-03	6.53919866e-05
2.30000000e+00	1.85996165e-03	6.48379664e-05
2.30500000e+00	1.83556961e-03	6.42121240e-05
2.31000000e+00	1.83653469e-03	6.46096102e-05
2.31500000e+00	1.83808983e-03	6.51234840e-05
2.32000000e+00	1.79357619e-03	6.22091134e-05
2.32500000e+00	1.80790496e-03	6.33125823e-05
2.33000000e+00	1.79414850e-03	6.30019251e-05
2.33500000e+00	1.76711846e-03	6.26440077e-05
2.34000000e+00	1.78922773e-03	6.23381024e-05
2.34500000e+00	1.75203322e-03	6.10505190e-05
2.35000000e+00	1.74363780e-03	6.10295507e-05
2.35500000e+00	1.74163591e-03	6.17655432e-05
2.36000000e+00	1.73153254e-03	6.05606283e-05
2.36500000e+00	1.71366796e-03	5.98260711e-05
2.37000000e+00	1.70093493e-03	5.95155007e-05
2.37500000e+00	1.68544961e-03	5.93469621e-05
2.38000000e+00	1.66518978e-03	5.90145883e-05
2.38500000e+00	1.68438577e-03	5.88273568e-05
2.39000000e+00	1.66480362e-03	5.82988669e-05
2.39500000e+00	1.66170415e-03	5.85240960e-05
2.40000000e+00	1.63759485e-03	5.85428737e-05
2.40500000e+00	1.63213881e-03	5.71461752e-05
2.41000000e+00	1.61906909e-03	5.69605312e-05
2.41500000e+00	1.62583379e-03	5.71300800e-05
2.42000000e+00	1.59797012e-03	5.69760747e-05
2.42500000e+00	1.59869922e-03	5.69085580e-05
2.43000000e+00	1.58139491e-03	5.56833127e-05
2.43500000e+00	1.58863515e-03	5.62346269e-05
2.44000000e+00	1.57332075e-03	5.57586486e-05
2.44500000e+00	1.55623598e-03	5.58610529e-05
2.45000000e+00	1.55371068e-03	5.47148884e-05
2.45500000e+00	1.53308171e-03	5.42288362e-05
2.46000000e+00	1.51731257e-03	5.38428032e-05
2.46500000e+00	1.51825086e-03	5.45768310e-05
2.47000000e+00	1.52684109e-03	5.43757981e-05
2.47500000e+00	1.49597528e-03	5.29001824e-05
2.48000000e+00	1.48856544e-03	5.32066468e-05
2.48500000e+00	1.48515606e-03	5.30520496e-05
2.49000000e+00	1.48232633e-03	5.36937905e-05
2.49500000e+00	1.47303211e-03	5.23420811e-05
2.50000000e+00	1.48407946e-03	5.28013161e-05
2.50500000e+00	1.45726464e-03	5.21507906e-05
2.51000000e+00	1.42723157e-03	5.14503698e-05
2.51500000e+00	1.45361374e-03	5.25312608e-05
2.52000000e+00	1.43404210e-03	5.13097154e-05
2.52500000e+00	1.41098837e-03	5.07265925e-05
2.53000000e+00	1.42869140e-03	5.18707885e-05
2.53500000e+00	1.42208097e-03	5.21829148e-05
2.54000000e+00	1.41218680e-03	5.09833539e-05
2.54500000e+00	1.40777547e-03	5.10569004e-05
2.55000000e+00	1.39026839e-03	5.06829314e-05
2.55500000e+00	1.38591650e-03	5.09427228e-05
2.56000000e+00	1.37214533e-03	5.06793471e-05
2.56500000e+00	1.37820750e-03	5.03977830e-05
2.57000000e+00	1.36680831e-03	5.02242932e-05
2.57500000e+00	1.36368959e-03	5.03039409e-05
2.58000000e+00	1.34097064e-03	5.02910227e-05
2.58500000e+00	1.32616310e-03	4.92732215e-05
2.59000000e+00	1.32913377e-03	4.92496688e-05
2.59500000e+00	1.33838621e-03	4.97574368e-05
2.60000000e+00	1.32146851e-03	4.96210344e-05
2.60500000e+00	1.32435111e-03	5.07783878e-05
2.61000000e+00	1.32324438e-03	5.78174409e-05
2.61500000e+00	1.31602865e-03	6.36396853e-05
2.62000000e+00	1.28632299e-03	6.84306027e-05
2.62500000e+00	1.27603836e-03	7.34555601e-05
2.63000000e+00	1.29951184e-03	8.25234614e-05
2.63500000e+00	1.31871650e-03	9.27404378e-05
2.64000000e+00	1.30843166e-03	1.01685982e-04
2.64500000e+00	1.30864892e-03	1.08446101e-04
2.65000000e+00	1.26767963e-03	1.11190945e-04
2.65500000e+00	1.27864990e-03	1.20526311e-04
2.66000000e+00	1.25568075e-03	1.26849566e-04
2.66500000e+00	1.24004135e-03	1.40574501e-04
2.67000000e+00	1.25219912e-03	1.54509766e-04
2.67500000e+00	1.24858730e-03	1.79156002e-04
2.68000000e+00	1.24793329e-03	2.08535918e-04
2.68500000e+00	1.31460113e-03	2.91246992e-04
2.69000000e+00	1.38816924e-03	4.93799006e-04
2.69500000e+00	0.00000000e+00	0.00000000e+00
2.70000000e+00	0.00000000e+00	0.00000000e+00
