% Filename : WDL7c_00026_00021.h5
% Date & Time : 30-Oct-2025 17:02:05
% X-ray Energy (keV) : 13.30001
% Exposure Time (s) : 0.500
% Photodiode Value : 141215.000
% I0 of Sample : 0
% I0 of Standard : 1
% 
% q(A^-1)   I(q)    I(q)_SE
8.40000000e-01	0.00000000e+00	0.00000000e+00
8.45000000e-01	2.87158677e-03	5.01751052e-04
8.50000000e-01	2.69707069e-03	2.49967065e-04
8.55000000e-01	2.60842746e-03	2.13565331e-04
8.60000000e-01	2.59098601e-03	1.83467584e-04
8.65000000e-01	2.59641813e-03	1.69379981e-04
8.70000000e-01	2.60466468e-03	1.61809078e-04
8.75000000e-01	2.61558336e-03	1.56626889e-04
8.80000000e-01	2.61587676e-03	1.51186929e-04
8.85000000e-01	2.62420799e-03	1.43551721e-04
8.90000000e-01	2.61211627e-03	1.39686637e-04
8.95000000e-01	2.65598688e-03	1.38218659e-04
9.00000000e-01	2.64731930e-03	1.36305831e-04
9.05000000e-01	2.65842414e-03	1.30875222e-04
9.10000000e-01	2.63706329e-03	1.27431931e-04
9.15000000e-01	2.65691759e-03	1.26419758e-04
9.20000000e-01	2.63287029e-03	1.25188091e-04
9.25000000e-01	2.66014407e-03	1.20972202e-04
9.30000000e-01	2.67752721e-03	1.20435111e-04
9.35000000e-01	2.69296961e-03	1.18908387e-04
9.40000000e-01	2.69027359e-03	1.19044440e-04
9.45000000e-01	2.68828001e-03	1.15959413e-04
9.50000000e-01	2.70196279e-03	1.14999516e-04
9.55000000e-01	2.69994062e-03	1.12792628e-04
9.60000000e-01	2.69735327e-03	1.12811347e-04
9.65000000e-01	2.69190426e-03	1.10653809e-04
9.70000000e-01	2.72202058e-03	1.10148184e-04
9.75000000e-01	2.71545591e-03	1.08716339e-04
9.80000000e-01	2.74538030e-03	1.08960913e-04
9.85000000e-01	2.74255263e-03	1.08950049e-04
9.90000000e-01	2.71449400e-03	1.04510087e-04
9.95000000e-01	2.71924828e-03	1.04193866e-04
1.00000000e+00	2.73616560e-03	1.04359506e-04
1.00500000e+00	2.74531450e-03	1.04712534e-04
1.01000000e+00	2.75732442e-03	1.02974469e-04
1.01500000e+00	2.73161117e-03	1.01012273e-04
1.02000000e+00	2.73364857e-03	1.01083021e-04
1.02500000e+00	2.73158583e-03	9.98248983e-05
1.03000000e+00	2.70832613e-03	9.85525709e-05
1.03500000e+00	2.72871857e-03	9.79399324e-05
1.04000000e+00	2.71853019e-03	9.70242355e-05
1.04500000e+00	2.71008996e-03	9.66971338e-05
1.05000000e+00	2.70235461e-03	9.57961033e-05
1.05500000e+00	2.68715835e-03	9.38662374e-05
1.06000000e+00	2.67630576e-03	9.32424690e-05
1.06500000e+00	2.70322909e-03	9.42708285e-05
1.07000000e+00	2.70739438e-03	9.43141239e-05
1.07500000e+00	2.70893258e-03	9.35921926e-05
1.08000000e+00	2.70811244e-03	9.31080526e-05
1.08500000e+00	2.74039852e-03	9.42623044e-05
1.09000000e+00	2.73158178e-03	9.44614089e-05
1.09500000e+00	2.73995689e-03	9.28984806e-05
1.10000000e+00	2.76693714e-03	9.44244221e-05
1.10500000e+00	2.74847653e-03	9.39747604e-05
1.11000000e+00	2.75546931e-03	9.44669546e-05
1.11500000e+00	2.79837025e-03	9.52198869e-05
1.12000000e+00	2.79444952e-03	9.53307684e-05
1.12500000e+00	2.77140933e-03	9.43727570e-05
1.13000000e+00	2.79158004e-03	9.61636323e-05
1.13500000e+00	2.80551099e-03	9.55021936e-05
1.14000000e+00	2.80770176e-03	9.53725447e-05
1.14500000e+00	2.81601887e-03	9.64621188e-05
1.15000000e+00	2.81483690e-03	9.69538242e-05
1.15500000e+00	2.84718629e-03	9.69911126e-05
1.16000000e+00	2.82937415e-03	9.67224070e-05
1.16500000e+00	2.82729899e-03	9.65480780e-05
1.17000000e+00	2.85359752e-03	9.86364378e-05
1.17500000e+00	2.85683976e-03	9.72617394e-05
1.18000000e+00	2.85156735e-03	9.76948776e-05
1.18500000e+00	2.85086187e-03	9.74487722e-05
1.19000000e+00	2.86758603e-03	9.89598775e-05
1.19500000e+00	2.86878963e-03	9.78119871e-05
1.20000000e+00	2.88805587e-03	9.90706115e-05
1.20500000e+00	2.89022040e-03	9.90120615e-05
1.21000000e+00	2.84387294e-03	9.86172738e-05
1.21500000e+00	2.87349693e-03	9.80905627e-05
1.22000000e+00	2.87792265e-03	9.83768003e-05
1.22500000e+00	2.87446532e-03	9.86258656e-05
1.23000000e+00	2.89185839e-03	9.99464843e-05
1.23500000e+00	2.88522912e-03	9.91797883e-05
1.24000000e+00	2.90176202e-03	9.92026031e-05
1.24500000e+00	2.89759620e-03	9.98367961e-05
1.25000000e+00	2.91240207e-03	1.00819075e-04
1.25500000e+00	2.89737117e-03	9.91523326e-05
1.26000000e+00	2.89180110e-03	9.95009212e-05
1.26500000e+00	2.90112808e-03	9.95146258e-05
1.27000000e+00	2.87588675e-03	1.00207316e-04
1.27500000e+00	2.90508214e-03	1.00083932e-04
1.28000000e+00	2.89679389e-03	9.91725849e-05
1.28500000e+00	2.91364973e-03	1.00374564e-04
1.29000000e+00	2.93444497e-03	1.01930975e-04
1.29500000e+00	2.90343344e-03	9.98296632e-05
1.30000000e+00	2.91063373e-03	9.99147036e-05
1.30500000e+00	2.90594543e-03	1.00157002e-04
1.31000000e+00	2.90599209e-03	1.01351843e-04
1.31500000e+00	2.91260957e-03	1.00310965e-04
1.32000000e+00	2.92329844e-03	1.00480904e-04
1.32500000e+00	2.89159298e-03	9.98498541e-05
1.33000000e+00	2.90327734e-03	1.01388621e-04
1.33500000e+00	2.90334128e-03	9.99500952e-05
1.34000000e+00	2.91476705e-03	1.00539784e-04
1.34500000e+00	2.91179041e-03	1.00764527e-04
1.35000000e+00	2.90706086e-03	1.01552990e-04
1.35500000e+00	2.91516704e-03	1.00384111e-04
1.36000000e+00	2.90597344e-03	9.99507708e-05
1.36500000e+00	2.91209247e-03	1.00495145e-04
1.37000000e+00	2.88871182e-03	1.01106108e-04
1.37500000e+00	2.90995596e-03	1.00343660e-04
1.38000000e+00	2.91242009e-03	1.00684502e-04
1.38500000e+00	2.89733438e-03	1.00706717e-04
1.39000000e+00	2.88101310e-03	1.00757780e-04
1.39500000e+00	2.90575181e-03	1.00114266e-04
1.40000000e+00	2.93153257e-03	1.04108472e-04
1.40500000e+00	2.90638435e-03	1.11121904e-04
1.41000000e+00	2.87636430e-03	1.15111870e-04
1.41500000e+00	2.85626031e-03	1.18338221e-04
1.42000000e+00	2.84458964e-03	1.22792974e-04
1.42500000e+00	2.81750845e-03	1.25145014e-04
1.43000000e+00	2.80645927e-03	1.29424892e-04
1.43500000e+00	2.78565172e-03	1.32296689e-04
1.44000000e+00	2.80390861e-03	1.38404160e-04
1.44500000e+00	2.75839921e-03	1.39699920e-04
1.45000000e+00	2.85658859e-03	1.39901427e-04
1.45500000e+00	2.86355020e-03	1.25913107e-04
1.46000000e+00	2.85861606e-03	1.22936302e-04
1.46500000e+00	2.85405691e-03	1.20456000e-04
1.47000000e+00	2.83584052e-03	1.19544189e-04
1.47500000e+00	2.85940963e-03	1.16923053e-04
1.48000000e+00	2.85272977e-03	1.15424157e-04
1.48500000e+00	2.83588289e-03	1.14750955e-04
1.49000000e+00	2.85380268e-03	1.15738817e-04
1.49500000e+00	2.84177293e-03	1.12858606e-04
1.50000000e+00	2.84837005e-03	1.12614817e-04
1.50500000e+00	2.87039851e-03	1.14181780e-04
1.51000000e+00	2.85529198e-03	1.13742544e-04
1.51500000e+00	2.87137784e-03	1.12524261e-04
1.52000000e+00	2.86525111e-03	1.11899401e-04
1.52500000e+00	2.86701266e-03	1.11805319e-04
1.53000000e+00	2.86437360e-03	1.12321804e-04
1.53500000e+00	2.85919952e-03	1.09128900e-04
1.54000000e+00	2.83514383e-03	1.07939380e-04
1.54500000e+00	2.84810997e-03	1.08162444e-04
1.55000000e+00	2.83850252e-03	1.07489599e-04
1.55500000e+00	2.83219954e-03	1.04821537e-04
1.56000000e+00	2.82873212e-03	1.04924346e-04
1.56500000e+00	2.79403857e-03	1.03140706e-04
1.57000000e+00	2.77792101e-03	1.01837888e-04
1.57500000e+00	2.76529395e-03	9.95129725e-05
1.58000000e+00	2.78977983e-03	1.00101823e-04
1.58500000e+00	2.76255246e-03	9.91453184e-05
1.59000000e+00	2.76812103e-03	9.94614840e-05
1.59500000e+00	2.72890571e-03	9.62211617e-05
1.60000000e+00	2.73715758e-03	9.64127273e-05
1.60500000e+00	2.75541251e-03	9.71179069e-05
1.61000000e+00	2.73442368e-03	9.59485303e-05
1.61500000e+00	2.72939432e-03	9.49820776e-05
1.62000000e+00	2.70003396e-03	9.43217570e-05
1.62500000e+00	2.71472117e-03	9.58483081e-05
1.63000000e+00	2.71147119e-03	9.47378224e-05
1.63500000e+00	2.70230858e-03	9.43992450e-05
1.64000000e+00	2.69606419e-03	9.42835790e-05
1.64500000e+00	2.68634309e-03	9.50405158e-05
1.65000000e+00	2.68113330e-03	9.38019987e-05
1.65500000e+00	2.67978519e-03	9.36307068e-05
1.66000000e+00	2.66564576e-03	9.33198297e-05
1.66500000e+00	2.68906016e-03	9.56221531e-05
1.67000000e+00	2.65812959e-03	9.25921507e-05
1.67500000e+00	2.64469631e-03	9.23552126e-05
1.68000000e+00	2.65150590e-03	9.29161775e-05
1.68500000e+00	2.63018742e-03	9.36106559e-05
1.69000000e+00	2.62873309e-03	9.17824528e-05
1.69500000e+00	2.63217170e-03	9.17251431e-05
1.70000000e+00	2.61844594e-03	9.22415509e-05
1.70500000e+00	2.58874734e-03	9.16823671e-05
1.71000000e+00	2.60645340e-03	9.11578894e-05
1.71500000e+00	2.62807312e-03	9.18652368e-05
1.72000000e+00	2.60130977e-03	9.16067043e-05
1.72500000e+00	2.60671833e-03	9.23321488e-05
1.73000000e+00	2.60629367e-03	9.10049612e-05
1.73500000e+00	2.58599479e-03	9.06086219e-05
1.74000000e+00	2.57289301e-03	9.04130624e-05
1.74500000e+00	2.56249451e-03	9.11016116e-05
1.75000000e+00	2.57999947e-03	8.99239458e-05
1.75500000e+00	2.57831878e-03	9.04574712e-05
1.76000000e+00	2.54490576e-03	8.93288712e-05
1.76500000e+00	2.51865945e-03	8.94827136e-05
1.77000000e+00	2.55793912e-03	8.93566026e-05
1.77500000e+00	2.53741955e-03	8.89159305e-05
1.78000000e+00	2.53073975e-03	8.90353523e-05
1.78500000e+00	2.50608068e-03	8.90236902e-05
1.79000000e+00	2.51790505e-03	8.78649477e-05
1.79500000e+00	2.49628446e-03	8.74416554e-05
1.80000000e+00	2.50415733e-03	8.82418227e-05
1.80500000e+00	2.50614019e-03	8.88277499e-05
1.81000000e+00	2.49395221e-03	8.71370762e-05
1.81500000e+00	2.46651885e-03	8.62590977e-05
1.82000000e+00	2.44043704e-03	8.59486566e-05
1.82500000e+00	2.44431910e-03	8.65479929e-05
1.83000000e+00	2.45407411e-03	8.58138156e-05
1.83500000e+00	2.45403976e-03	8.59666661e-05
1.84000000e+00	2.44780761e-03	8.61333595e-05
1.84500000e+00	2.44136177e-03	8.64593743e-05
1.85000000e+00	2.42996483e-03	8.50817226e-05
1.85500000e+00	2.44573041e-03	8.56489606e-05
1.86000000e+00	2.41299583e-03	8.50648912e-05
1.86500000e+00	2.40954090e-03	8.51257676e-05
1.87000000e+00	2.40120802e-03	8.39969042e-05
1.87500000e+00	2.41387041e-03	8.46811665e-05
1.88000000e+00	2.39065923e-03	8.42112387e-05
1.88500000e+00	2.37014890e-03	8.40141637e-05
1.89000000e+00	2.36604479e-03	8.26794770e-05
1.89500000e+00	2.37602952e-03	8.35551356e-05
1.90000000e+00	2.35075044e-03	8.28791445e-05
1.90500000e+00	2.35409677e-03	8.30966925e-05
1.91000000e+00	2.34966304e-03	8.23550043e-05
1.91500000e+00	2.34572511e-03	8.22463386e-05
1.92000000e+00	2.32284972e-03	8.18953968e-05
1.92500000e+00	2.32058484e-03	8.19561713e-05
1.93000000e+00	2.33545287e-03	8.17009625e-05
1.93500000e+00	2.30451496e-03	8.09052560e-05
1.94000000e+00	2.28648415e-03	8.08988868e-05
1.94500000e+00	2.28067796e-03	8.04609579e-05
1.95000000e+00	2.30448031e-03	8.05282171e-05
1.95500000e+00	2.28558299e-03	8.02734875e-05
1.96000000e+00	2.27451715e-03	8.03266090e-05
1.96500000e+00	2.28310851e-03	8.06838854e-05
1.97000000e+00	2.26148045e-03	7.89360636e-05
1.97500000e+00	2.26135410e-03	7.94440068e-05
1.98000000e+00	2.24971890e-03	7.94032441e-05
1.98500000e+00	2.23941624e-03	7.91808098e-05
1.99000000e+00	2.20497868e-03	7.69951490e-05
1.99500000e+00	2.21463345e-03	7.76431954e-05
2.00000000e+00	2.23411941e-03	7.89138777e-05
2.00500000e+00	2.24736574e-03	7.95321032e-05
2.01000000e+00	2.21257739e-03	8.58416052e-05
2.01500000e+00	2.19133476e-03	9.03540462e-05
2.02000000e+00	2.17625692e-03	9.57393288e-05
2.02500000e+00	2.17634569e-03	9.95441018e-05
2.03000000e+00	2.17820057e-03	1.05433696e-04
2.03500000e+00	2.12734354e-03	1.07452595e-04
2.04000000e+00	2.13906628e-03	1.13066521e-04
2.04500000e+00	2.08584810e-03	1.16017912e-04
2.05000000e+00	2.11449683e-03	1.23590224e-04
2.05500000e+00	2.13248493e-03	1.21999564e-04
2.06000000e+00	2.13391866e-03	1.06249923e-04
2.06500000e+00	2.09359136e-03	9.95473212e-05
2.07000000e+00	2.09874646e-03	9.44117825e-05
2.07500000e+00	2.10110796e-03	9.25730577e-05
2.08000000e+00	2.10976170e-03	9.26887132e-05
2.08500000e+00	2.11824233e-03	9.23413345e-05
2.09000000e+00	2.10096280e-03	8.87712578e-05
2.09500000e+00	2.08397040e-03	8.70151092e-05
2.10000000e+00	2.11263007e-03	8.76995591e-05
2.10500000e+00	2.07340116e-03	8.57885198e-05
2.11000000e+00	2.07762676e-03	8.27962821e-05
2.11500000e+00	2.04425581e-03	8.06743776e-05
2.12000000e+00	2.03457410e-03	7.99031151e-05
2.12500000e+00	2.02806985e-03	7.94490438e-05
2.13000000e+00	1.99899044e-03	7.50352090e-05
2.13500000e+00	1.98309355e-03	7.35915634e-05
2.14000000e+00	1.96152190e-03	7.22161258e-05
2.14500000e+00	1.96830366e-03	7.25891197e-05
2.15000000e+00	1.96210079e-03	6.99680121e-05
2.15500000e+00	1.96651194e-03	7.03330668e-05
2.16000000e+00	1.95515238e-03	6.95170281e-05
2.16500000e+00	1.93154134e-03	6.91204370e-05
2.17000000e+00	1.93716592e-03	6.76727817e-05
2.17500000e+00	1.92297060e-03	6.73502540e-05
2.18000000e+00	1.91938165e-03	6.74151038e-05
2.18500000e+00	1.90854514e-03	6.73663223e-05
2.19000000e+00	1.88681871e-03	6.64453827e-05
2.19500000e+00	1.87727977e-03	6.58192621e-05
2.20000000e+00	1.86436382e-03	6.54537704e-05
2.20500000e+00	1.87236670e-03	6.59330503e-05
2.21000000e+00	1.84207604e-03	6.52162287e-05
2.21500000e+00	1.85375990e-03	6.48562649e-05
2.22000000e+00	1.82842844e-03	6.39494411e-05
2.22500000e+00	1.80464861e-03	6.36579572e-05
2.23000000e+00	1.79659815e-03	6.37841591e-05
2.23500000e+00	1.80954033e-03	6.32808702e-05
2.24000000e+00	1.79382754e-03	6.27784739e-05
2.24500000e+00	1.79073517e-03	6.31144049e-05
2.25000000e+00	1.76487605e-03	6.27422235e-05
2.25500000e+00	1.74215796e-03	6.08300366e-05
2.26000000e+00	1.72450320e-03	6.04221519e-05
2.26500000e+00	1.72532172e-03	6.06056352e-05
2.27000000e+00	1.70892939e-03	6.09538470e-05
2.27500000e+00	1.68618121e-03	5.89588757e-05
2.28000000e+00	1.70001161e-03	5.94010461e-05
2.28500000e+00	1.68970205e-03	5.94575273e-05
2.29000000e+00	1.68272266e-03	5.95807643e-05
2.29500000e+00	1.65224202e-03	5.82459814e-05
2.30000000e+00	1.65025765e-03	5.76064165e-05
2.30500000e+00	1.63614272e-03	5.73449277e-05
2.31000000e+00	1.61821422e-03	5.70221103e-05
2.31500000e+00	1.61317440e-03	5.72855924e-05
2.32000000e+00	1.61875596e-03	5.62596916e-05
2.32500000e+00	1.58602555e-03	5.56409824e-05
2.33000000e+00	1.58282601e-03	5.56011380e-05
2.33500000e+00	1.58309444e-03	5.62264131e-05
2.34000000e+00	1.57284333e-03	5.49139183e-05
2.34500000e+00	1.56987474e-03	5.48524896e-05
2.35000000e+00	1.55372776e-03	5.44679670e-05
2.35500000e+00	1.54747770e-03	5.50179628e-05
2.36000000e+00	1.52912233e-03	5.35391623e-05
2.36500000e+00	1.51045642e-03	5.28165149e-05
2.37000000e+00	1.50200795e-03	5.25977465e-05
2.37500000e+00	1.51115750e-03	5.32747821e-05
2.38000000e+00	1.49306082e-03	5.29344088e-05
2.38500000e+00	1.47914909e-03	5.17979010e-05
2.39000000e+00	1.46516953e-03	5.13902124e-05
2.39500000e+00	1.47404375e-03	5.19880425e-05
2.40000000e+00	1.46182189e-03	5.22844921e-05
2.40500000e+00	1.44076567e-03	5.05564749e-05
2.41000000e+00	1.43863868e-03	5.06461990e-05
2.41500000e+00	1.42133244e-03	5.00279163e-05
2.42000000e+00	1.41355490e-03	5.04559039e-05
2.42500000e+00	1.41730221e-03	5.04597938e-05
2.43000000e+00	1.40711393e-03	4.96501277e-05
2.43500000e+00	1.38385551e-03	4.90069608e-05
2.44000000e+00	1.39718850e-03	4.95526666e-05
2.44500000e+00	1.38686465e-03	4.98520264e-05
2.45000000e+00	1.37622965e-03	4.85322809e-05
2.45500000e+00	1.36953463e-03	4.84379325e-05
2.46000000e+00	1.33760005e-03	4.75570733e-05
2.46500000e+00	1.33828498e-03	4.81632624e-05
2.47000000e+00	1.34082716e-03	4.77894074e-05
2.47500000e+00	1.33817524e-03	4.73886452e-05
2.48000000e+00	1.32497520e-03	4.73341333e-05
2.48500000e+00	1.31138861e-03	4.68815771e-05
2.49000000e+00	1.30151820e-03	4.71690330e-05
2.49500000e+00	1.28777989e-03	4.57769891e-05
2.50000000e+00	1.29286730e-03	4.60748358e-05
2.50500000e+00	1.29109783e-03	4.62847473e-05
2.51000000e+00	1.26557422e-03	4.57288821e-05
2.51500000e+00	1.26582171e-03	4.57338018e-05
2.52000000e+00	1.26806316e-03	4.54084167e-05
2.52500000e+00	1.25605518e-03	4.51902441e-05
2.53000000e+00	1.26299625e-03	4.59813259e-05
2.53500000e+00	1.23963609e-03	4.56015444e-05
2.54000000e+00	1.24228565e-03	4.49073510e-05
2.54500000e+00	1.21386702e-03	4.40889973e-05
2.55000000e+00	1.21399642e-03	4.42905317e-05
2.55500000e+00	1.21825513e-03	4.48140258e-05
2.56000000e+00	1.21127141e-03	4.48428219e-05
2.56500000e+00	1.19679299e-03	4.38661639e-05
2.57000000e+00	1.19022338e-03	4.37724682e-05
2.57500000e+00	1.18611438e-03	4.38427078e-05
2.58000000e+00	1.17681323e-03	4.41484142e-05
2.58500000e+00	1.17839807e-03	4.38569115e-05
2.59000000e+00	1.15598774e-03	4.29109579e-05
2.59500000e+00	1.15495603e-03	4.30298280e-05
2.60000000e+00	1.12956318e-03	4.23879759e-05
2.60500000e+00	1.16252871e-03	4.45852379e-05
2.61000000e+00	1.13394925e-03	4.95896392e-05
2.61500000e+00	1.14501470e-03	5.53457619e-05
2.62000000e+00	1.14322189e-03	6.06916776e-05
2.62500000e+00	1.13617639e-03	6.52352551e-05
2.63000000e+00	1.12400943e-03	7.15339153e-05
2.63500000e+00	1.12591842e-03	7.93564514e-05
2.64000000e+00	1.13642163e-03	8.82037725e-05
2.64500000e+00	1.10533235e-03	9.20481460e-05
2.65000000e+00	1.10965797e-03	9.71755024e-05
2.65500000e+00	1.12514144e-03	1.06184354e-04
2.66000000e+00	1.10201120e-03	1.11204860e-04
2.66500000e+00	1.04592935e-03	1.19125954e-04
2.67000000e+00	1.12400905e-03	1.38631668e-04
2.67500000e+00	1.06757422e-03	1.54599446e-04
2.68000000e+00	1.10377099e-03	1.84964947e-04
2.68500000e+00	1.07467979e-03	2.39852799e-04
2.69000000e+00	1.08910379e-03	3.89676546e-04
2.69500000e+00	0.00000000e+00	0.00000000e+00
2.70000000e+00	0.00000000e+00	0.00000000e+00
