% Filename : WDL7_00012_00210.h5
% Date & Time : 30-Oct-2025 14:58:47
% X-ray Energy (keV) : 13.30001
% Exposure Time (s) : 0.500
% Photodiode Value : 136410.000
% I0 of Sample : 0
% I0 of Standard : 1
% 
% q(A^-1)   I(q)    I(q)_SE
8.40000000e-01	0.00000000e+00	0.00000000e+00
8.45000000e-01	2.80022449e-03	4.92079289e-04
8.50000000e-01	2.70364045e-03	2.51366724e-04
8.55000000e-01	2.65065787e-03	2.16842482e-04
8.60000000e-01	2.59470458e-03	1.83529364e-04
8.65000000e-01	2.63003472e-03	1.71476627e-04
8.70000000e-01	2.59982346e-03	1.61642699e-04
8.75000000e-01	2.59418444e-03	1.55349193e-04
8.80000000e-01	2.58189181e-03	1.49416978e-04
8.85000000e-01	2.62375110e-03	1.43384674e-04
8.90000000e-01	2.67199391e-03	1.42929148e-04
8.95000000e-01	2.65548766e-03	1.38173365e-04
9.00000000e-01	2.63541476e-03	1.35794747e-04
9.05000000e-01	2.64678629e-03	1.30329297e-04
9.10000000e-01	2.66241349e-03	1.28770643e-04
9.15000000e-01	2.64862158e-03	1.26102231e-04
9.20000000e-01	2.69423146e-03	1.28137312e-04
9.25000000e-01	2.69224491e-03	1.22387992e-04
9.30000000e-01	2.71166505e-03	1.22120070e-04
9.35000000e-01	2.69111354e-03	1.18830602e-04
9.40000000e-01	2.69143357e-03	1.19233072e-04
9.45000000e-01	2.72153963e-03	1.17512713e-04
9.50000000e-01	2.72812015e-03	1.16143211e-04
9.55000000e-01	2.73800284e-03	1.14448953e-04
9.60000000e-01	2.71509807e-03	1.13506251e-04
9.65000000e-01	2.73495012e-03	1.12449002e-04
9.70000000e-01	2.73476202e-03	1.10602252e-04
9.75000000e-01	2.73280814e-03	1.09326589e-04
9.80000000e-01	2.74819571e-03	1.09136855e-04
9.85000000e-01	2.73069955e-03	1.08545661e-04
9.90000000e-01	2.75473563e-03	1.06099209e-04
9.95000000e-01	2.74212816e-03	1.05267973e-04
1.00000000e+00	2.74043062e-03	1.04454831e-04
1.00500000e+00	2.72101470e-03	1.03792830e-04
1.01000000e+00	2.73178613e-03	1.02026338e-04
1.01500000e+00	2.74482082e-03	1.01573695e-04
1.02000000e+00	2.75162640e-03	1.01759808e-04
1.02500000e+00	2.69813211e-03	9.86387294e-05
1.03000000e+00	2.73916922e-03	9.97473332e-05
1.03500000e+00	2.74044400e-03	9.83271426e-05
1.04000000e+00	2.71605023e-03	9.68760475e-05
1.04500000e+00	2.72501862e-03	9.72391040e-05
1.05000000e+00	2.71162213e-03	9.61388123e-05
1.05500000e+00	2.71973081e-03	9.50579223e-05
1.06000000e+00	2.70422842e-03	9.41882298e-05
1.06500000e+00	2.72904818e-03	9.52172951e-05
1.07000000e+00	2.73061974e-03	9.50766656e-05
1.07500000e+00	2.73264291e-03	9.44015972e-05
1.08000000e+00	2.73822650e-03	9.40023512e-05
1.08500000e+00	2.76098491e-03	9.50008196e-05
1.09000000e+00	2.73668179e-03	9.46145947e-05
1.09500000e+00	2.74696070e-03	9.30921632e-05
1.10000000e+00	2.77346982e-03	9.45293889e-05
1.10500000e+00	2.77400771e-03	9.48603491e-05
1.11000000e+00	2.74743624e-03	9.42091726e-05
1.11500000e+00	2.76465027e-03	9.39909314e-05
1.12000000e+00	2.78837912e-03	9.52226709e-05
1.12500000e+00	2.79057405e-03	9.49788857e-05
1.13000000e+00	2.80399687e-03	9.66716262e-05
1.13500000e+00	2.80665823e-03	9.55243173e-05
1.14000000e+00	2.81667420e-03	9.56395041e-05
1.14500000e+00	2.84734135e-03	9.75477961e-05
1.15000000e+00	2.79594619e-03	9.62458089e-05
1.15500000e+00	2.83107930e-03	9.65035281e-05
1.16000000e+00	2.83744666e-03	9.70533328e-05
1.16500000e+00	2.84867291e-03	9.73183053e-05
1.17000000e+00	2.82565574e-03	9.77461404e-05
1.17500000e+00	2.89584640e-03	9.86299920e-05
1.18000000e+00	2.85571961e-03	9.76750653e-05
1.18500000e+00	2.85787194e-03	9.78067462e-05
1.19000000e+00	2.85243851e-03	9.85212770e-05
1.19500000e+00	2.89311939e-03	9.86072619e-05
1.20000000e+00	2.88758491e-03	9.90846330e-05
1.20500000e+00	2.86959646e-03	9.83086042e-05
1.21000000e+00	2.88012591e-03	9.99686947e-05
1.21500000e+00	2.88177852e-03	9.83213014e-05
1.22000000e+00	2.89416876e-03	9.89730289e-05
1.22500000e+00	2.89967790e-03	9.95161479e-05
1.23000000e+00	2.88126912e-03	9.96352527e-05
1.23500000e+00	2.90053458e-03	9.96181507e-05
1.24000000e+00	2.90301686e-03	9.93027971e-05
1.24500000e+00	2.90614132e-03	1.00156034e-04
1.25000000e+00	2.90141648e-03	1.00552658e-04
1.25500000e+00	2.91026033e-03	9.96062539e-05
1.26000000e+00	2.91243531e-03	1.00352759e-04
1.26500000e+00	2.91510316e-03	1.00146749e-04
1.27000000e+00	2.92465764e-03	1.01808518e-04
1.27500000e+00	2.94137945e-03	1.01358882e-04
1.28000000e+00	2.91874939e-03	1.00083337e-04
1.28500000e+00	2.91325304e-03	1.00365862e-04
1.29000000e+00	2.93204916e-03	1.01852506e-04
1.29500000e+00	2.92224151e-03	1.00437273e-04
1.30000000e+00	2.94008766e-03	1.00883831e-04
1.30500000e+00	2.90372176e-03	1.00123725e-04
1.31000000e+00	2.90663688e-03	1.01270128e-04
1.31500000e+00	2.92643226e-03	1.00846187e-04
1.32000000e+00	2.93743311e-03	1.01028463e-04
1.32500000e+00	2.92085369e-03	1.00749388e-04
1.33000000e+00	2.92230682e-03	1.01981231e-04
1.33500000e+00	2.91976050e-03	1.00558257e-04
1.34000000e+00	2.93278172e-03	1.01121092e-04
1.34500000e+00	2.89383286e-03	1.00124627e-04
1.35000000e+00	2.88991192e-03	1.00991041e-04
1.35500000e+00	2.91261400e-03	1.00413275e-04
1.36000000e+00	2.92147204e-03	1.00412834e-04
1.36500000e+00	2.92104066e-03	1.00906580e-04
1.37000000e+00	2.91363907e-03	1.02080022e-04
1.37500000e+00	2.90789427e-03	1.00327516e-04
1.38000000e+00	2.91873855e-03	1.00986346e-04
1.38500000e+00	2.92038550e-03	1.01473198e-04
1.39000000e+00	2.90425982e-03	1.01592949e-04
1.39500000e+00	2.90329790e-03	1.00131320e-04
1.40000000e+00	2.93689955e-03	1.04385912e-04
1.40500000e+00	2.87655154e-03	1.09951799e-04
1.41000000e+00	2.87399293e-03	1.14995988e-04
1.41500000e+00	2.84258756e-03	1.17945193e-04
1.42000000e+00	2.85373196e-03	1.23181775e-04
1.42500000e+00	2.84037918e-03	1.26136322e-04
1.43000000e+00	2.82091563e-03	1.30089289e-04
1.43500000e+00	2.82340249e-03	1.34209271e-04
1.44000000e+00	2.79493962e-03	1.37919988e-04
1.44500000e+00	2.79151075e-03	1.41529366e-04
1.45000000e+00	2.84444548e-03	1.39434013e-04
1.45500000e+00	2.86846808e-03	1.26378597e-04
1.46000000e+00	2.88199372e-03	1.23807042e-04
1.46500000e+00	2.84549933e-03	1.20181826e-04
1.47000000e+00	2.85704713e-03	1.20390035e-04
1.47500000e+00	2.82906478e-03	1.15737537e-04
1.48000000e+00	2.86715477e-03	1.16080238e-04
1.48500000e+00	2.83581616e-03	1.14892263e-04
1.49000000e+00	2.86804097e-03	1.16344196e-04
1.49500000e+00	2.85714089e-03	1.13292070e-04
1.50000000e+00	2.85292710e-03	1.12749955e-04
1.50500000e+00	2.88207130e-03	1.14591514e-04
1.51000000e+00	2.85840274e-03	1.13954607e-04
1.51500000e+00	2.88184918e-03	1.12952632e-04
1.52000000e+00	2.86676859e-03	1.11939012e-04
1.52500000e+00	2.88593191e-03	1.12586113e-04
1.53000000e+00	2.89186379e-03	1.13475165e-04
1.53500000e+00	2.85360181e-03	1.08760419e-04
1.54000000e+00	2.84661626e-03	1.08359265e-04
1.54500000e+00	2.86801176e-03	1.08954881e-04
1.55000000e+00	2.84864182e-03	1.07848375e-04
1.55500000e+00	2.80777099e-03	1.03947436e-04
1.56000000e+00	2.82401520e-03	1.04782698e-04
1.56500000e+00	2.81116803e-03	1.03806504e-04
1.57000000e+00	2.79197324e-03	1.02391963e-04
1.57500000e+00	2.77986961e-03	1.00018603e-04
1.58000000e+00	2.78332463e-03	1.00035991e-04
1.58500000e+00	2.76457111e-03	9.92968409e-05
1.59000000e+00	2.76617624e-03	9.94166544e-05
1.59500000e+00	2.74924188e-03	9.69535459e-05
1.60000000e+00	2.76516815e-03	9.74806347e-05
1.60500000e+00	2.76587545e-03	9.75434273e-05
1.61000000e+00	2.72112582e-03	9.55418045e-05
1.61500000e+00	2.72360963e-03	9.47099822e-05
1.62000000e+00	2.74599657e-03	9.59056862e-05
1.62500000e+00	2.72203000e-03	9.63007452e-05
1.63000000e+00	2.70477389e-03	9.45366195e-05
1.63500000e+00	2.71883046e-03	9.49807514e-05
1.64000000e+00	2.70766795e-03	9.47368927e-05
1.64500000e+00	2.67814306e-03	9.47249940e-05
1.65000000e+00	2.68896441e-03	9.40653716e-05
1.65500000e+00	2.69684079e-03	9.41790212e-05
1.66000000e+00	2.66692260e-03	9.33330477e-05
1.66500000e+00	2.64837231e-03	9.41580950e-05
1.67000000e+00	2.67266797e-03	9.31422624e-05
1.67500000e+00	2.64366818e-03	9.23857574e-05
1.68000000e+00	2.66614530e-03	9.33398396e-05
1.68500000e+00	2.66998595e-03	9.51254819e-05
1.69000000e+00	2.65577676e-03	9.26789216e-05
1.69500000e+00	2.64227836e-03	9.20925266e-05
1.70000000e+00	2.64299802e-03	9.32162434e-05
1.70500000e+00	2.63405717e-03	9.33047805e-05
1.71000000e+00	2.62737967e-03	9.18719217e-05
1.71500000e+00	2.62534308e-03	9.16964123e-05
1.72000000e+00	2.62980408e-03	9.25785668e-05
1.72500000e+00	2.59813783e-03	9.20142083e-05
1.73000000e+00	2.60231732e-03	9.10491022e-05
1.73500000e+00	2.61090447e-03	9.15819600e-05
1.74000000e+00	2.59292245e-03	9.11261166e-05
1.74500000e+00	2.58838919e-03	9.20034593e-05
1.75000000e+00	2.56538142e-03	8.94658414e-05
1.75500000e+00	2.57075051e-03	9.02220610e-05
1.76000000e+00	2.55002194e-03	8.94649705e-05
1.76500000e+00	2.54972744e-03	9.06080862e-05
1.77000000e+00	2.53824949e-03	8.86386523e-05
1.77500000e+00	2.54265724e-03	8.91203325e-05
1.78000000e+00	2.54245193e-03	8.93488577e-05
1.78500000e+00	2.51783432e-03	8.94757937e-05
1.79000000e+00	2.51059923e-03	8.77042294e-05
1.79500000e+00	2.51203032e-03	8.79667133e-05
1.80000000e+00	2.49597871e-03	8.79424002e-05
1.80500000e+00	2.48749893e-03	8.82401156e-05
1.81000000e+00	2.50796136e-03	8.76292357e-05
1.81500000e+00	2.48731806e-03	8.70131266e-05
1.82000000e+00	2.48128079e-03	8.73601737e-05
1.82500000e+00	2.48609259e-03	8.80689679e-05
1.83000000e+00	2.46512589e-03	8.62174218e-05
1.83500000e+00	2.46518010e-03	8.63032306e-05
1.84000000e+00	2.46018461e-03	8.67277596e-05
1.84500000e+00	2.44592745e-03	8.66442746e-05
1.85000000e+00	2.43561955e-03	8.52799225e-05
1.85500000e+00	2.42746052e-03	8.50850941e-05
1.86000000e+00	2.42065449e-03	8.54127557e-05
1.86500000e+00	2.43559404e-03	8.61047933e-05
1.87000000e+00	2.42271914e-03	8.47931884e-05
1.87500000e+00	2.40939653e-03	8.45469174e-05
1.88000000e+00	2.40169258e-03	8.46142474e-05
1.88500000e+00	2.40527064e-03	8.52961516e-05
1.89000000e+00	2.39382318e-03	8.37233377e-05
1.89500000e+00	2.40401551e-03	8.45303676e-05
1.90000000e+00	2.36485060e-03	8.34234694e-05
1.90500000e+00	2.35583866e-03	8.31309070e-05
1.91000000e+00	2.36214360e-03	8.27617990e-05
1.91500000e+00	2.32744992e-03	8.17099330e-05
1.92000000e+00	2.32824476e-03	8.20839359e-05
1.92500000e+00	2.31736141e-03	8.19231035e-05
1.93000000e+00	2.34259651e-03	8.19640689e-05
1.93500000e+00	2.31887933e-03	8.14126421e-05
1.94000000e+00	2.29523104e-03	8.11710257e-05
1.94500000e+00	2.31527731e-03	8.17180368e-05
1.95000000e+00	2.29006647e-03	7.99935559e-05
1.95500000e+00	2.28510594e-03	8.02681158e-05
1.96000000e+00	2.28240992e-03	8.06389861e-05
1.96500000e+00	2.28126496e-03	8.06693426e-05
1.97000000e+00	2.26153713e-03	7.89634649e-05
1.97500000e+00	2.26777646e-03	7.97622965e-05
1.98000000e+00	2.23146468e-03	7.87601328e-05
1.98500000e+00	2.26239294e-03	8.00087519e-05
1.99000000e+00	2.23214695e-03	7.79325553e-05
1.99500000e+00	2.23275234e-03	7.83550068e-05
2.00000000e+00	2.22043299e-03	7.84381272e-05
2.00500000e+00	2.22922438e-03	7.89032510e-05
2.01000000e+00	2.20762105e-03	8.57170250e-05
2.01500000e+00	2.19978746e-03	9.08554825e-05
2.02000000e+00	2.16674617e-03	9.53246753e-05
2.02500000e+00	2.18387245e-03	9.98381020e-05
2.03000000e+00	2.14855468e-03	1.04118416e-04
2.03500000e+00	2.12932063e-03	1.07829913e-04
2.04000000e+00	2.09805063e-03	1.10908067e-04
2.04500000e+00	2.13479282e-03	1.18674946e-04
2.05000000e+00	2.11882454e-03	1.23823196e-04
2.05500000e+00	2.12415373e-03	1.21679505e-04
2.06000000e+00	2.13796769e-03	1.06332212e-04
2.06500000e+00	2.13286251e-03	1.01514711e-04
2.07000000e+00	2.11219609e-03	9.52217886e-05
2.07500000e+00	2.12275229e-03	9.34734243e-05
2.08000000e+00	2.11727840e-03	9.29869629e-05
2.08500000e+00	2.12092816e-03	9.24042848e-05
2.09000000e+00	2.12363797e-03	8.97513942e-05
2.09500000e+00	2.09720768e-03	8.77074815e-05
2.10000000e+00	2.09135633e-03	8.67842936e-05
2.10500000e+00	2.08989119e-03	8.64977814e-05
2.11000000e+00	2.07924351e-03	8.29543647e-05
2.11500000e+00	2.06508163e-03	8.15438500e-05
2.12000000e+00	2.04564944e-03	8.02676864e-05
2.12500000e+00	2.03221076e-03	7.96380933e-05
2.13000000e+00	2.00423719e-03	7.52978503e-05
2.13500000e+00	1.99544693e-03	7.40863568e-05
2.14000000e+00	1.99177875e-03	7.32258887e-05
2.14500000e+00	1.97039337e-03	7.26967906e-05
2.15000000e+00	1.97672446e-03	7.05654049e-05
2.15500000e+00	1.96300117e-03	7.01848763e-05
2.16000000e+00	1.95580124e-03	6.95659534e-05
2.16500000e+00	1.93187513e-03	6.91971810e-05
2.17000000e+00	1.93323063e-03	6.76248842e-05
2.17500000e+00	1.94440483e-03	6.81287052e-05
2.18000000e+00	1.93527273e-03	6.80379336e-05
2.18500000e+00	1.88185246e-03	6.65160485e-05
2.19000000e+00	1.91123505e-03	6.74163538e-05
2.19500000e+00	1.89864773e-03	6.64806209e-05
2.20000000e+00	1.87866503e-03	6.59547687e-05
2.20500000e+00	1.87217948e-03	6.59074355e-05
2.21000000e+00	1.86606519e-03	6.60900807e-05
2.21500000e+00	1.84535764e-03	6.46359839e-05
2.22000000e+00	1.83218692e-03	6.40644440e-05
2.22500000e+00	1.83308905e-03	6.46944699e-05
2.23000000e+00	1.82188254e-03	6.46666754e-05
2.23500000e+00	1.79003211e-03	6.25627251e-05
2.24000000e+00	1.78733033e-03	6.26029441e-05
2.24500000e+00	1.77786182e-03	6.27213529e-05
2.25000000e+00	1.76495718e-03	6.27635185e-05
2.25500000e+00	1.76046925e-03	6.15203852e-05
2.26000000e+00	1.74651307e-03	6.11754172e-05
2.26500000e+00	1.73382362e-03	6.10615720e-05
2.27000000e+00	1.73418092e-03	6.18646796e-05
2.27500000e+00	1.71053114e-03	5.98126631e-05
2.28000000e+00	1.70984249e-03	5.97791088e-05
2.28500000e+00	1.70320490e-03	5.99476267e-05
2.29000000e+00	1.69112509e-03	5.98298541e-05
2.29500000e+00	1.68560413e-03	5.94311735e-05
2.30000000e+00	1.64216157e-03	5.73607133e-05
2.30500000e+00	1.63270218e-03	5.72008400e-05
2.31000000e+00	1.64329910e-03	5.79214499e-05
2.31500000e+00	1.62980339e-03	5.78687716e-05
2.32000000e+00	1.62269173e-03	5.64568289e-05
2.32500000e+00	1.61509202e-03	5.67762844e-05
2.33000000e+00	1.59417622e-03	5.60309073e-05
2.33500000e+00	1.58672927e-03	5.63037035e-05
2.34000000e+00	1.57245519e-03	5.48856512e-05
2.34500000e+00	1.57091105e-03	5.48154061e-05
2.35000000e+00	1.55354399e-03	5.45136918e-05
2.35500000e+00	1.56851090e-03	5.57109571e-05
2.36000000e+00	1.54063971e-03	5.39274165e-05
2.36500000e+00	1.53606735e-03	5.37177165e-05
2.37000000e+00	1.52457285e-03	5.33911163e-05
2.37500000e+00	1.51362235e-03	5.34751762e-05
2.38000000e+00	1.49468748e-03	5.30544365e-05
2.38500000e+00	1.49825057e-03	5.24292979e-05
2.39000000e+00	1.47947084e-03	5.19255389e-05
2.39500000e+00	1.46663955e-03	5.17784993e-05
2.40000000e+00	1.46028287e-03	5.22774112e-05
2.40500000e+00	1.45862561e-03	5.12171023e-05
2.41000000e+00	1.44667344e-03	5.09734898e-05
2.41500000e+00	1.43923310e-03	5.06016561e-05
2.42000000e+00	1.42239236e-03	5.08027124e-05
2.42500000e+00	1.41707419e-03	5.05046553e-05
2.43000000e+00	1.41621250e-03	4.99987509e-05
2.43500000e+00	1.38556473e-03	4.91369815e-05
2.44000000e+00	1.40910567e-03	4.99930308e-05
2.44500000e+00	1.39236181e-03	5.00617171e-05
2.45000000e+00	1.38009706e-03	4.87516415e-05
2.45500000e+00	1.34171467e-03	4.75794422e-05
2.46000000e+00	1.35571177e-03	4.81683384e-05
2.46500000e+00	1.35533766e-03	4.88090639e-05
2.47000000e+00	1.33007530e-03	4.75155868e-05
2.47500000e+00	1.32975132e-03	4.71097467e-05
2.48000000e+00	1.31667810e-03	4.71562701e-05
2.48500000e+00	1.32954387e-03	4.75505214e-05
2.49000000e+00	1.31531517e-03	4.77272258e-05
2.49500000e+00	1.30472504e-03	4.63580449e-05
2.50000000e+00	1.30064212e-03	4.63451818e-05
2.50500000e+00	1.29101109e-03	4.63449505e-05
2.51000000e+00	1.27701778e-03	4.61319691e-05
2.51500000e+00	1.28158498e-03	4.63724301e-05
2.52000000e+00	1.27071261e-03	4.55921290e-05
2.52500000e+00	1.25845830e-03	4.53051533e-05
2.53000000e+00	1.24589130e-03	4.52996322e-05
2.53500000e+00	1.24808444e-03	4.59151385e-05
2.54000000e+00	1.25237546e-03	4.52892560e-05
2.54500000e+00	1.23334405e-03	4.48961502e-05
2.55000000e+00	1.21678043e-03	4.44572721e-05
2.55500000e+00	1.21632092e-03	4.46954752e-05
2.56000000e+00	1.21057000e-03	4.48254864e-05
2.56500000e+00	1.20210605e-03	4.40746870e-05
2.57000000e+00	1.19623873e-03	4.40445126e-05
2.57500000e+00	1.19842112e-03	4.42769436e-05
2.58000000e+00	1.18750613e-03	4.46047864e-05
2.58500000e+00	1.17979016e-03	4.39539300e-05
2.59000000e+00	1.16975680e-03	4.34174308e-05
2.59500000e+00	1.17424636e-03	4.38202651e-05
2.60000000e+00	1.16281294e-03	4.37036497e-05
2.60500000e+00	1.17323285e-03	4.50599717e-05
2.61000000e+00	1.16610225e-03	5.09995032e-05
2.61500000e+00	1.14541205e-03	5.53803023e-05
2.62000000e+00	1.15556348e-03	6.14013064e-05
2.62500000e+00	1.12660366e-03	6.46900336e-05
2.63000000e+00	1.10904609e-03	7.06472027e-05
2.63500000e+00	1.14294681e-03	8.06052308e-05
2.64000000e+00	1.10797286e-03	8.60355382e-05
2.64500000e+00	1.08804029e-03	9.03913905e-05
2.65000000e+00	1.14172894e-03	1.00442605e-04
2.65500000e+00	1.12216637e-03	1.06305471e-04
2.66000000e+00	1.08328039e-03	1.10442680e-04
2.66500000e+00	1.08322963e-03	1.23733326e-04
2.67000000e+00	1.11077841e-03	1.36523522e-04
2.67500000e+00	1.05560535e-03	1.51673963e-04
2.68000000e+00	1.14820193e-03	1.92461725e-04
2.68500000e+00	1.08890372e-03	2.42293169e-04
2.69000000e+00	1.06023183e-03	3.85253026e-04
2.69500000e+00	0.00000000e+00	0.00000000e+00
2.70000000e+00	0.00000000e+00	0.00000000e+00
