% Filename : WDL7_00012_00146.h5
% Date & Time : 30-Oct-2025 14:54:54
% X-ray Energy (keV) : 13.30001
% Exposure Time (s) : 0.500
% Photodiode Value : 135972.000
% I0 of Sample : 0
% I0 of Standard : 1
% 
% q(A^-1)   I(q)    I(q)_SE
8.40000000e-01	0.00000000e+00	0.00000000e+00
8.45000000e-01	2.95221553e-03	5.17527752e-04
8.50000000e-01	2.72146209e-03	2.52717972e-04
8.55000000e-01	2.62515245e-03	2.14633355e-04
8.60000000e-01	2.58492532e-03	1.82939150e-04
8.65000000e-01	2.57343045e-03	1.67888423e-04
8.70000000e-01	2.60709208e-03	1.62192549e-04
8.75000000e-01	2.59237424e-03	1.55013954e-04
8.80000000e-01	2.62081717e-03	1.51464998e-04
8.85000000e-01	2.62906900e-03	1.43795408e-04
8.90000000e-01	2.66806723e-03	1.42850810e-04
8.95000000e-01	2.62601924e-03	1.36544388e-04
9.00000000e-01	2.61368007e-03	1.34593314e-04
9.05000000e-01	2.64550419e-03	1.30380145e-04
9.10000000e-01	2.66106008e-03	1.28651658e-04
9.15000000e-01	2.66848006e-03	1.27072387e-04
9.20000000e-01	2.67142249e-03	1.26945970e-04
9.25000000e-01	2.67556145e-03	1.21671679e-04
9.30000000e-01	2.68303682e-03	1.20723727e-04
9.35000000e-01	2.68675350e-03	1.18595392e-04
9.40000000e-01	2.67704061e-03	1.18524490e-04
9.45000000e-01	2.71495524e-03	1.17364944e-04
9.50000000e-01	2.72990149e-03	1.16231553e-04
9.55000000e-01	2.71960912e-03	1.13665987e-04
9.60000000e-01	2.70332576e-03	1.12980117e-04
9.65000000e-01	2.73354420e-03	1.12442975e-04
9.70000000e-01	2.75628277e-03	1.11478764e-04
9.75000000e-01	2.72378581e-03	1.08983963e-04
9.80000000e-01	2.72206543e-03	1.08070276e-04
9.85000000e-01	2.73190061e-03	1.08481873e-04
9.90000000e-01	2.73885373e-03	1.05391140e-04
9.95000000e-01	2.72317705e-03	1.04379988e-04
1.00000000e+00	2.75941339e-03	1.05298785e-04
1.00500000e+00	2.73014357e-03	1.04157353e-04
1.01000000e+00	2.74363786e-03	1.02526329e-04
1.01500000e+00	2.75221520e-03	1.01784618e-04
1.02000000e+00	2.73183824e-03	1.01028998e-04
1.02500000e+00	2.72595406e-03	9.95801403e-05
1.03000000e+00	2.71432857e-03	9.88948633e-05
1.03500000e+00	2.72964543e-03	9.80947198e-05
1.04000000e+00	2.70730705e-03	9.64449386e-05
1.04500000e+00	2.71884206e-03	9.69898516e-05
1.05000000e+00	2.70540663e-03	9.60252629e-05
1.05500000e+00	2.70545561e-03	9.45868856e-05
1.06000000e+00	2.70827075e-03	9.44943390e-05
1.06500000e+00	2.70995267e-03	9.45667967e-05
1.07000000e+00	2.71777225e-03	9.47001553e-05
1.07500000e+00	2.73268470e-03	9.43745057e-05
1.08000000e+00	2.73221655e-03	9.38919536e-05
1.08500000e+00	2.73564461e-03	9.41412954e-05
1.09000000e+00	2.72874234e-03	9.43316409e-05
1.09500000e+00	2.73092678e-03	9.24925258e-05
1.10000000e+00	2.77244292e-03	9.44574618e-05
1.10500000e+00	2.74847868e-03	9.40951522e-05
1.11000000e+00	2.75740656e-03	9.44624275e-05
1.11500000e+00	2.75315471e-03	9.35758919e-05
1.12000000e+00	2.80099998e-03	9.56935351e-05
1.12500000e+00	2.80604033e-03	9.55193576e-05
1.13000000e+00	2.80517497e-03	9.66167995e-05
1.13500000e+00	2.79423498e-03	9.51116635e-05
1.14000000e+00	2.78626976e-03	9.47386121e-05
1.14500000e+00	2.82232164e-03	9.67058298e-05
1.15000000e+00	2.82011722e-03	9.71846409e-05
1.15500000e+00	2.85274339e-03	9.72403846e-05
1.16000000e+00	2.84664833e-03	9.73321002e-05
1.16500000e+00	2.86068819e-03	9.76317566e-05
1.17000000e+00	2.83817947e-03	9.80430163e-05
1.17500000e+00	2.85028099e-03	9.71608205e-05
1.18000000e+00	2.85170181e-03	9.75518731e-05
1.18500000e+00	2.87234675e-03	9.81748555e-05
1.19000000e+00	2.88769735e-03	9.98350428e-05
1.19500000e+00	2.86503610e-03	9.78514703e-05
1.20000000e+00	2.87444225e-03	9.86869290e-05
1.20500000e+00	2.85661721e-03	9.78529150e-05
1.21000000e+00	2.86782265e-03	9.95286987e-05
1.21500000e+00	2.88453195e-03	9.85324696e-05
1.22000000e+00	2.89870176e-03	9.90999122e-05
1.22500000e+00	2.90078676e-03	9.95406346e-05
1.23000000e+00	2.89260732e-03	1.00051386e-04
1.23500000e+00	2.89458730e-03	9.94182352e-05
1.24000000e+00	2.90260581e-03	9.91864511e-05
1.24500000e+00	2.90137406e-03	9.99113554e-05
1.25000000e+00	2.90493878e-03	1.00620772e-04
1.25500000e+00	2.91893748e-03	9.99196082e-05
1.26000000e+00	2.88503498e-03	9.92999246e-05
1.26500000e+00	2.90131359e-03	9.95744104e-05
1.27000000e+00	2.89318400e-03	1.00721711e-04
1.27500000e+00	2.92005622e-03	1.00693263e-04
1.28000000e+00	2.90328673e-03	9.94146350e-05
1.28500000e+00	2.91415620e-03	1.00324502e-04
1.29000000e+00	2.88477193e-03	1.00226794e-04
1.29500000e+00	2.92355257e-03	1.00495533e-04
1.30000000e+00	2.91768267e-03	1.00151073e-04
1.30500000e+00	2.90543179e-03	1.00091097e-04
1.31000000e+00	2.92391188e-03	1.01984128e-04
1.31500000e+00	2.89631561e-03	9.98060210e-05
1.32000000e+00	2.91562811e-03	1.00375309e-04
1.32500000e+00	2.93041989e-03	1.01134776e-04
1.33000000e+00	2.91402569e-03	1.01705407e-04
1.33500000e+00	2.91537413e-03	1.00406623e-04
1.34000000e+00	2.93009421e-03	1.01066218e-04
1.34500000e+00	2.92951421e-03	1.01349706e-04
1.35000000e+00	2.90911100e-03	1.01634789e-04
1.35500000e+00	2.90842361e-03	1.00248949e-04
1.36000000e+00	2.90187938e-03	9.98282446e-05
1.36500000e+00	2.89764185e-03	1.00037044e-04
1.37000000e+00	2.90582516e-03	1.01800618e-04
1.37500000e+00	2.92419676e-03	1.00929254e-04
1.38000000e+00	2.91252084e-03	1.00729869e-04
1.38500000e+00	2.89680959e-03	1.00624389e-04
1.39000000e+00	2.88575926e-03	1.00917248e-04
1.39500000e+00	2.90816499e-03	1.00276422e-04
1.40000000e+00	2.94028445e-03	1.04387894e-04
1.40500000e+00	2.88895941e-03	1.10384622e-04
1.41000000e+00	2.86366974e-03	1.14657125e-04
1.41500000e+00	2.84998000e-03	1.18168596e-04
1.42000000e+00	2.84059858e-03	1.22594482e-04
1.42500000e+00	2.81258709e-03	1.24996838e-04
1.43000000e+00	2.82760453e-03	1.30359539e-04
1.43500000e+00	2.79939701e-03	1.33084863e-04
1.44000000e+00	2.78122457e-03	1.37426171e-04
1.44500000e+00	2.80206389e-03	1.41900829e-04
1.45000000e+00	2.85667397e-03	1.39998583e-04
1.45500000e+00	2.88991657e-03	1.27136361e-04
1.46000000e+00	2.88193677e-03	1.23823909e-04
1.46500000e+00	2.83992554e-03	1.19821002e-04
1.47000000e+00	2.82761231e-03	1.19167600e-04
1.47500000e+00	2.86334255e-03	1.17065902e-04
1.48000000e+00	2.84782320e-03	1.15259621e-04
1.48500000e+00	2.83593053e-03	1.14791730e-04
1.49000000e+00	2.82238566e-03	1.14609200e-04
1.49500000e+00	2.85584658e-03	1.13413745e-04
1.50000000e+00	2.86004204e-03	1.13128684e-04
1.50500000e+00	2.86497858e-03	1.13963966e-04
1.51000000e+00	2.86012615e-03	1.13967581e-04
1.51500000e+00	2.88919797e-03	1.13232931e-04
1.52000000e+00	2.88336082e-03	1.12575017e-04
1.52500000e+00	2.86595636e-03	1.11796992e-04
1.53000000e+00	2.87039300e-03	1.12678069e-04
1.53500000e+00	2.86784330e-03	1.09381802e-04
1.54000000e+00	2.86811257e-03	1.09254968e-04
1.54500000e+00	2.84738993e-03	1.08167849e-04
1.55000000e+00	2.82757183e-03	1.07105196e-04
1.55500000e+00	2.86369649e-03	1.06078256e-04
1.56000000e+00	2.81055686e-03	1.04301983e-04
1.56500000e+00	2.78541067e-03	1.02861128e-04
1.57000000e+00	2.78821462e-03	1.02256030e-04
1.57500000e+00	2.75955779e-03	9.93538803e-05
1.58000000e+00	2.75917021e-03	9.90744864e-05
1.58500000e+00	2.78110177e-03	9.98770434e-05
1.59000000e+00	2.77253557e-03	9.96660685e-05
1.59500000e+00	2.74790253e-03	9.68682006e-05
1.60000000e+00	2.74017500e-03	9.65704615e-05
1.60500000e+00	2.73500937e-03	9.64825365e-05
1.61000000e+00	2.73476083e-03	9.59545527e-05
1.61500000e+00	2.71053432e-03	9.43229497e-05
1.62000000e+00	2.70596263e-03	9.45444911e-05
1.62500000e+00	2.70052842e-03	9.53626951e-05
1.63000000e+00	2.70699340e-03	9.45768105e-05
1.63500000e+00	2.71349773e-03	9.48573431e-05
1.64000000e+00	2.71556966e-03	9.49379259e-05
1.64500000e+00	2.69952214e-03	9.54281364e-05
1.65000000e+00	2.69167430e-03	9.41394384e-05
1.65500000e+00	2.70533273e-03	9.45458933e-05
1.66000000e+00	2.67808596e-03	9.37057934e-05
1.66500000e+00	2.67503105e-03	9.50885516e-05
1.67000000e+00	2.66324174e-03	9.28358110e-05
1.67500000e+00	2.62996443e-03	9.18793516e-05
1.68000000e+00	2.65125881e-03	9.28125183e-05
1.68500000e+00	2.62034086e-03	9.33375627e-05
1.69000000e+00	2.65183577e-03	9.25678191e-05
1.69500000e+00	2.63325072e-03	9.18159293e-05
1.70000000e+00	2.62144299e-03	9.24498709e-05
1.70500000e+00	2.61383242e-03	9.25911356e-05
1.71000000e+00	2.61734586e-03	9.15400087e-05
1.71500000e+00	2.59345857e-03	9.06070912e-05
1.72000000e+00	2.59247780e-03	9.12753903e-05
1.72500000e+00	2.58489873e-03	9.16214684e-05
1.73000000e+00	2.61467355e-03	9.13782915e-05
1.73500000e+00	2.59040682e-03	9.07561901e-05
1.74000000e+00	2.58662049e-03	9.08981161e-05
1.74500000e+00	2.57355713e-03	9.14826166e-05
1.75000000e+00	2.55991134e-03	8.92609047e-05
1.75500000e+00	2.57100256e-03	9.03395142e-05
1.76000000e+00	2.56578154e-03	9.00295780e-05
1.76500000e+00	2.52969044e-03	8.99763979e-05
1.77000000e+00	2.53509812e-03	8.85896918e-05
1.77500000e+00	2.53342661e-03	8.87963001e-05
1.78000000e+00	2.49922113e-03	8.78857972e-05
1.78500000e+00	2.53364066e-03	8.99649218e-05
1.79000000e+00	2.53845679e-03	8.86452218e-05
1.79500000e+00	2.49782450e-03	8.74788766e-05
1.80000000e+00	2.50158954e-03	8.81615481e-05
1.80500000e+00	2.48845478e-03	8.81994253e-05
1.81000000e+00	2.46417987e-03	8.61500080e-05
1.81500000e+00	2.48427459e-03	8.68542784e-05
1.82000000e+00	2.49288613e-03	8.77398724e-05
1.82500000e+00	2.45537844e-03	8.69721332e-05
1.83000000e+00	2.45458099e-03	8.58442271e-05
1.83500000e+00	2.47577645e-03	8.67377428e-05
1.84000000e+00	2.44933740e-03	8.63431413e-05
1.84500000e+00	2.43400349e-03	8.62771136e-05
1.85000000e+00	2.43174623e-03	8.52475193e-05
1.85500000e+00	2.42691811e-03	8.50096208e-05
1.86000000e+00	2.40063582e-03	8.47044850e-05
1.86500000e+00	2.40128783e-03	8.49278948e-05
1.87000000e+00	2.40545525e-03	8.41458377e-05
1.87500000e+00	2.39995214e-03	8.41221784e-05
1.88000000e+00	2.39690221e-03	8.44618680e-05
1.88500000e+00	2.37356718e-03	8.42216239e-05
1.89000000e+00	2.36363060e-03	8.25860522e-05
1.89500000e+00	2.37445149e-03	8.34396661e-05
1.90000000e+00	2.38860582e-03	8.42059504e-05
1.90500000e+00	2.35636276e-03	8.31164105e-05
1.91000000e+00	2.33823532e-03	8.19824988e-05
1.91500000e+00	2.33139638e-03	8.17406423e-05
1.92000000e+00	2.33783361e-03	8.24442054e-05
1.92500000e+00	2.32599650e-03	8.21404030e-05
1.93000000e+00	2.33533165e-03	8.17097395e-05
1.93500000e+00	2.29562853e-03	8.05557255e-05
1.94000000e+00	2.30824127e-03	8.16511748e-05
1.94500000e+00	2.29422982e-03	8.08733889e-05
1.95000000e+00	2.28844850e-03	7.99796096e-05
1.95500000e+00	2.29268473e-03	8.05134018e-05
1.96000000e+00	2.27953563e-03	8.05522804e-05
1.96500000e+00	2.25846563e-03	7.98293278e-05
1.97000000e+00	2.25298784e-03	7.87360324e-05
1.97500000e+00	2.26476354e-03	7.96192107e-05
1.98000000e+00	2.23995343e-03	7.90683257e-05
1.98500000e+00	2.25234446e-03	7.96556345e-05
1.99000000e+00	2.22516088e-03	7.77091346e-05
1.99500000e+00	2.21742448e-03	7.77797182e-05
2.00000000e+00	2.21373979e-03	7.81899979e-05
2.00500000e+00	2.23837794e-03	7.92889187e-05
2.01000000e+00	2.24227813e-03	8.71014282e-05
2.01500000e+00	2.19821754e-03	9.07669310e-05
2.02000000e+00	2.19197657e-03	9.63706642e-05
2.02500000e+00	2.16862786e-03	9.91406448e-05
2.03000000e+00	2.12521564e-03	1.02949168e-04
2.03500000e+00	2.13147015e-03	1.07799754e-04
2.04000000e+00	2.11580448e-03	1.11855659e-04
2.04500000e+00	2.08925248e-03	1.16335083e-04
2.05000000e+00	2.09579935e-03	1.22391217e-04
2.05500000e+00	2.12444033e-03	1.21437043e-04
2.06000000e+00	2.13114069e-03	1.06398051e-04
2.06500000e+00	2.09040314e-03	9.94634453e-05
2.07000000e+00	2.10437563e-03	9.47705354e-05
2.07500000e+00	2.10737702e-03	9.28495788e-05
2.08000000e+00	2.10415186e-03	9.25998873e-05
2.08500000e+00	2.09611008e-03	9.12038724e-05
2.09000000e+00	2.10810349e-03	8.91850389e-05
2.09500000e+00	2.10173467e-03	8.79152894e-05
2.10000000e+00	2.09050446e-03	8.67859913e-05
2.10500000e+00	2.08275013e-03	8.62969065e-05
2.11000000e+00	2.07276332e-03	8.26342267e-05
2.11500000e+00	2.04747066e-03	8.08438506e-05
2.12000000e+00	2.02823341e-03	7.96420065e-05
2.12500000e+00	2.02113303e-03	7.91511944e-05
2.13000000e+00	2.02749822e-03	7.61998683e-05
2.13500000e+00	1.99381500e-03	7.41161026e-05
2.14000000e+00	1.97901944e-03	7.27969093e-05
2.14500000e+00	1.93202553e-03	7.12169049e-05
2.15000000e+00	1.96694620e-03	7.01580870e-05
2.15500000e+00	1.96539890e-03	7.03075720e-05
2.16000000e+00	1.93996657e-03	6.90094807e-05
2.16500000e+00	1.94671776e-03	6.97180916e-05
2.17000000e+00	1.91874591e-03	6.70637440e-05
2.17500000e+00	1.92433245e-03	6.74294312e-05
2.18000000e+00	1.91872659e-03	6.74859499e-05
2.18500000e+00	1.88967180e-03	6.68216576e-05
2.19000000e+00	1.90436986e-03	6.71775127e-05
2.19500000e+00	1.88403198e-03	6.60083556e-05
2.20000000e+00	1.88294422e-03	6.60908271e-05
2.20500000e+00	1.86525757e-03	6.57222168e-05
2.21000000e+00	1.85533470e-03	6.57046119e-05
2.21500000e+00	1.83827087e-03	6.43996047e-05
2.22000000e+00	1.81991899e-03	6.36267626e-05
2.22500000e+00	1.82511706e-03	6.44075951e-05
2.23000000e+00	1.81163906e-03	6.42825650e-05
2.23500000e+00	1.79291993e-03	6.27047003e-05
2.24000000e+00	1.78643710e-03	6.24915685e-05
2.24500000e+00	1.78323776e-03	6.28092800e-05
2.25000000e+00	1.76707608e-03	6.28467636e-05
2.25500000e+00	1.76196589e-03	6.15040866e-05
2.26000000e+00	1.73961102e-03	6.09505109e-05
2.26500000e+00	1.71432321e-03	6.03140281e-05
2.27000000e+00	1.72043771e-03	6.13544670e-05
2.27500000e+00	1.70850745e-03	5.97838190e-05
2.28000000e+00	1.69347652e-03	5.92130728e-05
2.28500000e+00	1.68591711e-03	5.93702758e-05
2.29000000e+00	1.68234463e-03	5.95862499e-05
2.29500000e+00	1.65712857e-03	5.84857899e-05
2.30000000e+00	1.64871912e-03	5.76212999e-05
2.30500000e+00	1.64254753e-03	5.75510205e-05
2.31000000e+00	1.63241939e-03	5.75384697e-05
2.31500000e+00	1.60723496e-03	5.71239796e-05
2.32000000e+00	1.62653885e-03	5.66334102e-05
2.32500000e+00	1.62595137e-03	5.70486085e-05
2.33000000e+00	1.57832629e-03	5.55026845e-05
2.33500000e+00	1.57583235e-03	5.59848915e-05
2.34000000e+00	1.55675498e-03	5.43551048e-05
2.34500000e+00	1.55690197e-03	5.43610988e-05
2.35000000e+00	1.55195143e-03	5.44045410e-05
2.35500000e+00	1.53265192e-03	5.44050066e-05
2.36000000e+00	1.53223245e-03	5.36932078e-05
2.36500000e+00	1.52354740e-03	5.33888861e-05
2.37000000e+00	1.51048243e-03	5.28682538e-05
2.37500000e+00	1.50019477e-03	5.30266365e-05
2.38000000e+00	1.48445541e-03	5.26890210e-05
2.38500000e+00	1.48067024e-03	5.17755352e-05
2.39000000e+00	1.46049895e-03	5.12434577e-05
2.39500000e+00	1.46072422e-03	5.15079897e-05
2.40000000e+00	1.44948630e-03	5.18713050e-05
2.40500000e+00	1.44669274e-03	5.07662776e-05
2.41000000e+00	1.44205317e-03	5.07564768e-05
2.41500000e+00	1.43505466e-03	5.05409793e-05
2.42000000e+00	1.40747886e-03	5.02453042e-05
2.42500000e+00	1.42110450e-03	5.06313548e-05
2.43000000e+00	1.41826779e-03	4.99597805e-05
2.43500000e+00	1.40655935e-03	4.98463315e-05
2.44000000e+00	1.39240343e-03	4.93776682e-05
2.44500000e+00	1.37244528e-03	4.92869312e-05
2.45000000e+00	1.35882031e-03	4.80236140e-05
2.45500000e+00	1.36398343e-03	4.83910115e-05
2.46000000e+00	1.35236431e-03	4.82031201e-05
2.46500000e+00	1.33156194e-03	4.79755622e-05
2.47000000e+00	1.34197455e-03	4.78102778e-05
2.47500000e+00	1.31402688e-03	4.65838357e-05
2.48000000e+00	1.31781812e-03	4.71068352e-05
2.48500000e+00	1.32371401e-03	4.73396022e-05
2.49000000e+00	1.31036392e-03	4.74614239e-05
2.49500000e+00	1.30575696e-03	4.64280484e-05
2.50000000e+00	1.27188397e-03	4.53410970e-05
2.50500000e+00	1.27475094e-03	4.57462208e-05
2.51000000e+00	1.27383101e-03	4.59632226e-05
2.51500000e+00	1.26689382e-03	4.58260174e-05
2.52000000e+00	1.27396240e-03	4.56658619e-05
2.52500000e+00	1.24574357e-03	4.48371944e-05
2.53000000e+00	1.24770711e-03	4.53948707e-05
2.53500000e+00	1.23998536e-03	4.55787409e-05
2.54000000e+00	1.23037170e-03	4.45685535e-05
2.54500000e+00	1.23031860e-03	4.46757625e-05
2.55000000e+00	1.20960101e-03	4.41710967e-05
2.55500000e+00	1.20422457e-03	4.42712063e-05
2.56000000e+00	1.21353994e-03	4.49490501e-05
2.56500000e+00	1.20492900e-03	4.41900152e-05
2.57000000e+00	1.19117030e-03	4.39026464e-05
2.57500000e+00	1.17702769e-03	4.34605054e-05
2.58000000e+00	1.17630743e-03	4.42058578e-05
2.58500000e+00	1.16989690e-03	4.36701979e-05
2.59000000e+00	1.14707946e-03	4.26017907e-05
2.59500000e+00	1.17012356e-03	4.36482575e-05
2.60000000e+00	1.15695013e-03	4.34355089e-05
2.60500000e+00	1.16566913e-03	4.47919445e-05
2.61000000e+00	1.14970200e-03	5.02213217e-05
2.61500000e+00	1.13245408e-03	5.47574954e-05
2.62000000e+00	1.13532732e-03	6.03634138e-05
2.62500000e+00	1.10775166e-03	6.38253877e-05
2.63000000e+00	1.10194488e-03	7.00799898e-05
2.63500000e+00	1.13648835e-03	8.03846553e-05
2.64000000e+00	1.14022611e-03	8.89959594e-05
2.64500000e+00	1.12950662e-03	9.41116680e-05
2.65000000e+00	1.09573920e-03	9.61170507e-05
2.65500000e+00	1.07805587e-03	1.02317229e-04
2.66000000e+00	1.07691475e-03	1.08831238e-04
2.66500000e+00	1.08110506e-03	1.22794756e-04
2.67000000e+00	1.10398306e-03	1.37017679e-04
2.67500000e+00	1.01339641e-03	1.45483739e-04
2.68000000e+00	1.05333370e-03	1.78323555e-04
2.68500000e+00	1.06082870e-03	2.36361328e-04
2.69000000e+00	1.00658698e-03	3.63199769e-04
2.69500000e+00	0.00000000e+00	0.00000000e+00
2.70000000e+00	0.00000000e+00	0.00000000e+00
