% Filename : WDL7c_thin_00028_00011.h5
% Date & Time : 30-Oct-2025 17:10:04
% X-ray Energy (keV) : 13.30001
% Exposure Time (s) : 0.500
% Photodiode Value : 141563.000
% I0 of Sample : 0
% I0 of Standard : 1
% 
% q(A^-1)   I(q)    I(q)_SE
8.40000000e-01	0.00000000e+00	0.00000000e+00
8.45000000e-01	2.76213687e-03	4.83342958e-04
8.50000000e-01	2.72816146e-03	2.53047805e-04
8.55000000e-01	2.60437098e-03	2.12947895e-04
8.60000000e-01	2.61440726e-03	1.84995246e-04
8.65000000e-01	2.58883112e-03	1.68604022e-04
8.70000000e-01	2.58509365e-03	1.60492171e-04
8.75000000e-01	2.62440462e-03	1.56868190e-04
8.80000000e-01	2.61078016e-03	1.50941963e-04
8.85000000e-01	2.60984841e-03	1.42574243e-04
8.90000000e-01	2.63943407e-03	1.41270596e-04
8.95000000e-01	2.63732439e-03	1.37072105e-04
9.00000000e-01	2.67892034e-03	1.38086561e-04
9.05000000e-01	2.62827105e-03	1.29300331e-04
9.10000000e-01	2.66012403e-03	1.28528516e-04
9.15000000e-01	2.64882577e-03	1.25938957e-04
9.20000000e-01	2.66779587e-03	1.26755719e-04
9.25000000e-01	2.67131032e-03	1.21420437e-04
9.30000000e-01	2.70423457e-03	1.21666855e-04
9.35000000e-01	2.70772422e-03	1.19371935e-04
9.40000000e-01	2.66613125e-03	1.18022533e-04
9.45000000e-01	2.70938893e-03	1.16985810e-04
9.50000000e-01	2.70523902e-03	1.15153475e-04
9.55000000e-01	2.69672124e-03	1.12680541e-04
9.60000000e-01	2.70009801e-03	1.12964573e-04
9.65000000e-01	2.71584762e-03	1.11666681e-04
9.70000000e-01	2.71813436e-03	1.09959013e-04
9.75000000e-01	2.71988474e-03	1.08807494e-04
9.80000000e-01	2.71755683e-03	1.07854082e-04
9.85000000e-01	2.70263470e-03	1.07339053e-04
9.90000000e-01	2.75500637e-03	1.06087169e-04
9.95000000e-01	2.74881191e-03	1.05295668e-04
1.00000000e+00	2.75098190e-03	1.04946120e-04
1.00500000e+00	2.72982205e-03	1.04127247e-04
1.01000000e+00	2.73801013e-03	1.02210841e-04
1.01500000e+00	2.74100574e-03	1.01321114e-04
1.02000000e+00	2.74243863e-03	1.01312056e-04
1.02500000e+00	2.72446568e-03	9.95031690e-05
1.03000000e+00	2.73473791e-03	9.95068434e-05
1.03500000e+00	2.72668101e-03	9.78265089e-05
1.04000000e+00	2.72383920e-03	9.72512543e-05
1.04500000e+00	2.70320921e-03	9.65155686e-05
1.05000000e+00	2.69241195e-03	9.55101103e-05
1.05500000e+00	2.70662514e-03	9.44708145e-05
1.06000000e+00	2.69968161e-03	9.40309946e-05
1.06500000e+00	2.70143853e-03	9.42067102e-05
1.07000000e+00	2.72048616e-03	9.47573131e-05
1.07500000e+00	2.72326624e-03	9.41079743e-05
1.08000000e+00	2.71821929e-03	9.33178139e-05
1.08500000e+00	2.72936438e-03	9.39191155e-05
1.09000000e+00	2.73240443e-03	9.43806840e-05
1.09500000e+00	2.74399199e-03	9.29908121e-05
1.10000000e+00	2.74170029e-03	9.34600904e-05
1.10500000e+00	2.74473956e-03	9.38965985e-05
1.11000000e+00	2.74285095e-03	9.38751220e-05
1.11500000e+00	2.78195191e-03	9.45760534e-05
1.12000000e+00	2.77148260e-03	9.44371274e-05
1.12500000e+00	2.77768730e-03	9.45296622e-05
1.13000000e+00	2.79821218e-03	9.64097006e-05
1.13500000e+00	2.81039034e-03	9.56089818e-05
1.14000000e+00	2.80716745e-03	9.53763069e-05
1.14500000e+00	2.83252995e-03	9.70737218e-05
1.15000000e+00	2.80316268e-03	9.64862522e-05
1.15500000e+00	2.84340564e-03	9.69012201e-05
1.16000000e+00	2.81839672e-03	9.62840783e-05
1.16500000e+00	2.83650700e-03	9.68580657e-05
1.17000000e+00	2.81591768e-03	9.73338379e-05
1.17500000e+00	2.84341550e-03	9.68598513e-05
1.18000000e+00	2.83834501e-03	9.70802107e-05
1.18500000e+00	2.86936266e-03	9.79836177e-05
1.19000000e+00	2.85586302e-03	9.86385491e-05
1.19500000e+00	2.88038139e-03	9.82476315e-05
1.20000000e+00	2.88490792e-03	9.88979026e-05
1.20500000e+00	2.88472952e-03	9.87317852e-05
1.21000000e+00	2.88502936e-03	1.00056180e-04
1.21500000e+00	2.87479100e-03	9.80921636e-05
1.22000000e+00	2.89022580e-03	9.86757876e-05
1.22500000e+00	2.88722069e-03	9.90661913e-05
1.23000000e+00	2.87869909e-03	9.95223227e-05
1.23500000e+00	2.88931377e-03	9.91523482e-05
1.24000000e+00	2.88230571e-03	9.85323423e-05
1.24500000e+00	2.89138160e-03	9.95891534e-05
1.25000000e+00	2.88876751e-03	1.00032447e-04
1.25500000e+00	2.90871650e-03	9.95199529e-05
1.26000000e+00	2.91004307e-03	1.00241943e-04
1.26500000e+00	2.90162652e-03	9.95386110e-05
1.27000000e+00	2.90128820e-03	1.00911687e-04
1.27500000e+00	2.90532006e-03	1.00082670e-04
1.28000000e+00	2.89447035e-03	9.90634852e-05
1.28500000e+00	2.89131874e-03	9.95309045e-05
1.29000000e+00	2.91150655e-03	1.01157737e-04
1.29500000e+00	2.92156807e-03	1.00434368e-04
1.30000000e+00	2.90960106e-03	9.98318984e-05
1.30500000e+00	2.89542708e-03	9.97989827e-05
1.31000000e+00	2.90687990e-03	1.01368016e-04
1.31500000e+00	2.91099914e-03	1.00221336e-04
1.32000000e+00	2.89633514e-03	9.96971580e-05
1.32500000e+00	2.91427685e-03	1.00537897e-04
1.33000000e+00	2.90762423e-03	1.01582730e-04
1.33500000e+00	2.89372847e-03	9.97406195e-05
1.34000000e+00	2.91226147e-03	1.00342804e-04
1.34500000e+00	2.92122572e-03	1.01095165e-04
1.35000000e+00	2.90966622e-03	1.01627243e-04
1.35500000e+00	2.90590977e-03	1.00096358e-04
1.36000000e+00	2.93770876e-03	1.00959476e-04
1.36500000e+00	2.92334259e-03	1.00899414e-04
1.37000000e+00	2.90556690e-03	1.01727582e-04
1.37500000e+00	2.92237057e-03	1.00691582e-04
1.38000000e+00	2.91211871e-03	1.00666907e-04
1.38500000e+00	2.91417661e-03	1.01223882e-04
1.39000000e+00	2.90200312e-03	1.01517688e-04
1.39500000e+00	2.90154791e-03	1.00009319e-04
1.40000000e+00	2.92076301e-03	1.03706389e-04
1.40500000e+00	2.88295071e-03	1.10187137e-04
1.41000000e+00	2.87810010e-03	1.15202302e-04
1.41500000e+00	2.84501359e-03	1.18130778e-04
1.42000000e+00	2.86934019e-03	1.23979586e-04
1.42500000e+00	2.83332537e-03	1.25823661e-04
1.43000000e+00	2.81659134e-03	1.29859046e-04
1.43500000e+00	2.77685541e-03	1.31806130e-04
1.44000000e+00	2.76171858e-03	1.36114489e-04
1.44500000e+00	2.76366892e-03	1.39929287e-04
1.45000000e+00	2.84038811e-03	1.39154358e-04
1.45500000e+00	2.86492270e-03	1.25913578e-04
1.46000000e+00	2.84905269e-03	1.22513188e-04
1.46500000e+00	2.86257194e-03	1.20782837e-04
1.47000000e+00	2.86379251e-03	1.20692369e-04
1.47500000e+00	2.86601119e-03	1.17151314e-04
1.48000000e+00	2.86046838e-03	1.15701626e-04
1.48500000e+00	2.83360099e-03	1.14658480e-04
1.49000000e+00	2.86388353e-03	1.16201398e-04
1.49500000e+00	2.85104265e-03	1.13076673e-04
1.50000000e+00	2.83046061e-03	1.11945886e-04
1.50500000e+00	2.85537732e-03	1.13384981e-04
1.51000000e+00	2.84500313e-03	1.13330283e-04
1.51500000e+00	2.86683456e-03	1.12262627e-04
1.52000000e+00	2.87086534e-03	1.12091814e-04
1.52500000e+00	2.88799400e-03	1.12600952e-04
1.53000000e+00	2.87595328e-03	1.12797892e-04
1.53500000e+00	2.85698003e-03	1.08815039e-04
1.54000000e+00	2.86899814e-03	1.09208907e-04
1.54500000e+00	2.83958379e-03	1.07799773e-04
1.55000000e+00	2.82552232e-03	1.07076388e-04
1.55500000e+00	2.82650473e-03	1.04619780e-04
1.56000000e+00	2.80225681e-03	1.03943102e-04
1.56500000e+00	2.79907156e-03	1.03325722e-04
1.57000000e+00	2.79670284e-03	1.02541763e-04
1.57500000e+00	2.77179608e-03	9.97594089e-05
1.58000000e+00	2.77535600e-03	9.96687799e-05
1.58500000e+00	2.73772180e-03	9.83746128e-05
1.59000000e+00	2.75938665e-03	9.91923019e-05
1.59500000e+00	2.75011897e-03	9.69407861e-05
1.60000000e+00	2.73192213e-03	9.62217115e-05
1.60500000e+00	2.73363479e-03	9.64080728e-05
1.61000000e+00	2.72678136e-03	9.56849380e-05
1.61500000e+00	2.73006963e-03	9.49621712e-05
1.62000000e+00	2.71132022e-03	9.46675717e-05
1.62500000e+00	2.72314010e-03	9.62816258e-05
1.63000000e+00	2.71248562e-03	9.47767753e-05
1.63500000e+00	2.69176400e-03	9.40972350e-05
1.64000000e+00	2.70698507e-03	9.46448662e-05
1.64500000e+00	2.68976326e-03	9.50513979e-05
1.65000000e+00	2.69376723e-03	9.42433992e-05
1.65500000e+00	2.65881239e-03	9.28843280e-05
1.66000000e+00	2.65397338e-03	9.28258114e-05
1.66500000e+00	2.67003608e-03	9.50206196e-05
1.67000000e+00	2.63993462e-03	9.19232781e-05
1.67500000e+00	2.64864430e-03	9.24404303e-05
1.68000000e+00	2.63182381e-03	9.21429363e-05
1.68500000e+00	2.63927341e-03	9.39820030e-05
1.69000000e+00	2.62666495e-03	9.16994645e-05
1.69500000e+00	2.63868733e-03	9.19621113e-05
1.70000000e+00	2.65068485e-03	9.35284359e-05
1.70500000e+00	2.61119948e-03	9.24696989e-05
1.71000000e+00	2.59263430e-03	9.06737099e-05
1.71500000e+00	2.59946387e-03	9.07781180e-05
1.72000000e+00	2.59355176e-03	9.13815056e-05
1.72500000e+00	2.57842105e-03	9.12942066e-05
1.73000000e+00	2.57265851e-03	8.99134214e-05
1.73500000e+00	2.57339986e-03	9.01780126e-05
1.74000000e+00	2.55207710e-03	8.96749572e-05
1.74500000e+00	2.54876486e-03	9.06186960e-05
1.75000000e+00	2.56453500e-03	8.93813868e-05
1.75500000e+00	2.54908022e-03	8.95161447e-05
1.76000000e+00	2.53395161e-03	8.88865086e-05
1.76500000e+00	2.53269775e-03	8.99599068e-05
1.77000000e+00	2.53339814e-03	8.84505828e-05
1.77500000e+00	2.51988100e-03	8.82508650e-05
1.78000000e+00	2.51242910e-03	8.83964870e-05
1.78500000e+00	2.50479381e-03	8.89486541e-05
1.79000000e+00	2.50124948e-03	8.73300199e-05
1.79500000e+00	2.49314536e-03	8.73178360e-05
1.80000000e+00	2.48813381e-03	8.76527565e-05
1.80500000e+00	2.49885981e-03	8.85750960e-05
1.81000000e+00	2.47882445e-03	8.65906408e-05
1.81500000e+00	2.47018429e-03	8.63168904e-05
1.82000000e+00	2.47745282e-03	8.71731383e-05
1.82500000e+00	2.44990168e-03	8.67288022e-05
1.83000000e+00	2.45829815e-03	8.59552128e-05
1.83500000e+00	2.44294577e-03	8.55535595e-05
1.84000000e+00	2.43884122e-03	8.59731780e-05
1.84500000e+00	2.41746248e-03	8.56213677e-05
1.85000000e+00	2.42435704e-03	8.49032783e-05
1.85500000e+00	2.41296059e-03	8.45258892e-05
1.86000000e+00	2.39271343e-03	8.44429409e-05
1.86500000e+00	2.41084307e-03	8.52448150e-05
1.87000000e+00	2.40573382e-03	8.41558965e-05
1.87500000e+00	2.38248336e-03	8.36093663e-05
1.88000000e+00	2.36457547e-03	8.32752264e-05
1.88500000e+00	2.39029803e-03	8.47185904e-05
1.89000000e+00	2.36237767e-03	8.25315804e-05
1.89500000e+00	2.36543465e-03	8.31354017e-05
1.90000000e+00	2.35905601e-03	8.32118812e-05
1.90500000e+00	2.34027698e-03	8.25617708e-05
1.91000000e+00	2.35991360e-03	8.26574006e-05
1.91500000e+00	2.34025526e-03	8.20779857e-05
1.92000000e+00	2.32119904e-03	8.18293882e-05
1.92500000e+00	2.32210696e-03	8.20170781e-05
1.93000000e+00	2.30919700e-03	8.07241957e-05
1.93500000e+00	2.29900063e-03	8.07196296e-05
1.94000000e+00	2.28686693e-03	8.08474853e-05
1.94500000e+00	2.28410969e-03	8.05266742e-05
1.95000000e+00	2.28442602e-03	7.97955593e-05
1.95500000e+00	2.26409209e-03	7.94209817e-05
1.96000000e+00	2.26001607e-03	7.98503300e-05
1.96500000e+00	2.25621995e-03	7.97217159e-05
1.97000000e+00	2.26950126e-03	7.91881009e-05
1.97500000e+00	2.22719826e-03	7.83450514e-05
1.98000000e+00	2.24153289e-03	7.91084438e-05
1.98500000e+00	2.22802201e-03	7.87905044e-05
1.99000000e+00	2.23077646e-03	7.79108763e-05
1.99500000e+00	2.20315110e-03	7.72511802e-05
2.00000000e+00	2.20685323e-03	7.80157183e-05
2.00500000e+00	2.23713391e-03	7.91476165e-05
2.01000000e+00	2.20663159e-03	8.56649101e-05
2.01500000e+00	2.16302161e-03	8.92906515e-05
2.02000000e+00	2.16710617e-03	9.53033903e-05
2.02500000e+00	2.16926448e-03	9.92644723e-05
2.03000000e+00	2.12873895e-03	1.03081074e-04
2.03500000e+00	2.12375917e-03	1.07482986e-04
2.04000000e+00	2.11530521e-03	1.11597565e-04
2.04500000e+00	2.10305733e-03	1.16736453e-04
2.05000000e+00	2.07793584e-03	1.21502288e-04
2.05500000e+00	2.13741718e-03	1.22243959e-04
2.06000000e+00	2.09684991e-03	1.04315262e-04
2.06500000e+00	2.11143461e-03	1.00440271e-04
2.07000000e+00	2.09754052e-03	9.43974974e-05
2.07500000e+00	2.12882611e-03	9.35779655e-05
2.08000000e+00	2.12117379e-03	9.31463755e-05
2.08500000e+00	2.09016803e-03	9.10080521e-05
2.09000000e+00	2.08226085e-03	8.79950797e-05
2.09500000e+00	2.07953268e-03	8.69565192e-05
2.10000000e+00	2.08344083e-03	8.65281662e-05
2.10500000e+00	2.06900802e-03	8.56664307e-05
2.11000000e+00	2.05961220e-03	8.20998029e-05
2.11500000e+00	2.03970389e-03	8.05843264e-05
2.12000000e+00	2.05145752e-03	8.05648699e-05
2.12500000e+00	2.01171281e-03	7.87486479e-05
2.13000000e+00	2.00226219e-03	7.51915732e-05
2.13500000e+00	2.00188702e-03	7.42926264e-05
2.14000000e+00	1.98077641e-03	7.29043689e-05
2.14500000e+00	1.95477492e-03	7.21408191e-05
2.15000000e+00	1.96312402e-03	6.99258598e-05
2.15500000e+00	1.96549189e-03	7.02228112e-05
2.16000000e+00	1.94647544e-03	6.92054648e-05
2.16500000e+00	1.94077762e-03	6.95117076e-05
2.17000000e+00	1.91771095e-03	6.69882376e-05
2.17500000e+00	1.90099879e-03	6.65971961e-05
2.18000000e+00	1.92472686e-03	6.75426181e-05
2.18500000e+00	1.89790490e-03	6.70024735e-05
2.19000000e+00	1.88836794e-03	6.64140582e-05
2.19500000e+00	1.86897564e-03	6.54561624e-05
2.20000000e+00	1.86927018e-03	6.56174406e-05
2.20500000e+00	1.84865442e-03	6.50995402e-05
2.21000000e+00	1.84022311e-03	6.51172297e-05
2.21500000e+00	1.82608773e-03	6.39058268e-05
2.22000000e+00	1.83302456e-03	6.40621157e-05
2.22500000e+00	1.81906533e-03	6.41246259e-05
2.23000000e+00	1.78907396e-03	6.33897814e-05
2.23500000e+00	1.79661076e-03	6.28159971e-05
2.24000000e+00	1.79197704e-03	6.26382709e-05
2.24500000e+00	1.77956977e-03	6.27014033e-05
2.25000000e+00	1.75607904e-03	6.24243778e-05
2.25500000e+00	1.76539289e-03	6.15324660e-05
2.26000000e+00	1.72876804e-03	6.05739159e-05
2.26500000e+00	1.72103969e-03	6.05132398e-05
2.27000000e+00	1.72057506e-03	6.13386943e-05
2.27500000e+00	1.70387015e-03	5.95376374e-05
2.28000000e+00	1.70937806e-03	5.98146640e-05
2.28500000e+00	1.69046505e-03	5.94521060e-05
2.29000000e+00	1.68702723e-03	5.97250604e-05
2.29500000e+00	1.65026279e-03	5.82218291e-05
2.30000000e+00	1.65159083e-03	5.76732221e-05
2.30500000e+00	1.63358495e-03	5.72317082e-05
2.31000000e+00	1.62227306e-03	5.72037943e-05
2.31500000e+00	1.62378372e-03	5.76559790e-05
2.32000000e+00	1.60918541e-03	5.59153675e-05
2.32500000e+00	1.60796118e-03	5.64280058e-05
2.33000000e+00	1.59585134e-03	5.60918398e-05
2.33500000e+00	1.56999185e-03	5.58182640e-05
2.34000000e+00	1.57425282e-03	5.49480115e-05
2.34500000e+00	1.55117396e-03	5.41807125e-05
2.35000000e+00	1.55725512e-03	5.45202405e-05
2.35500000e+00	1.54646833e-03	5.48773254e-05
2.36000000e+00	1.51882063e-03	5.32089307e-05
2.36500000e+00	1.52072643e-03	5.32132707e-05
2.37000000e+00	1.50417869e-03	5.26172850e-05
2.37500000e+00	1.50014676e-03	5.29737321e-05
2.38000000e+00	1.49828651e-03	5.32040277e-05
2.38500000e+00	1.50218547e-03	5.25156669e-05
2.39000000e+00	1.47917466e-03	5.18493818e-05
2.39500000e+00	1.44767804e-03	5.10800609e-05
2.40000000e+00	1.45577503e-03	5.20855117e-05
2.40500000e+00	1.44392568e-03	5.06229740e-05
2.41000000e+00	1.43701840e-03	5.06070800e-05
2.41500000e+00	1.43059709e-03	5.03596558e-05
2.42000000e+00	1.42678035e-03	5.08588850e-05
2.42500000e+00	1.42045649e-03	5.05292383e-05
2.43000000e+00	1.40355650e-03	4.94517035e-05
2.43500000e+00	1.40143782e-03	4.95814834e-05
2.44000000e+00	1.37909788e-03	4.89193568e-05
2.44500000e+00	1.36117528e-03	4.89337478e-05
2.45000000e+00	1.36846253e-03	4.82997205e-05
2.45500000e+00	1.35872199e-03	4.81592125e-05
2.46000000e+00	1.35432535e-03	4.80821029e-05
2.46500000e+00	1.35507398e-03	4.88038041e-05
2.47000000e+00	1.33357668e-03	4.74782822e-05
2.47500000e+00	1.33951963e-03	4.74617498e-05
2.48000000e+00	1.31054806e-03	4.68631857e-05
2.48500000e+00	1.29909398e-03	4.63817738e-05
2.49000000e+00	1.30472353e-03	4.72889435e-05
2.49500000e+00	1.29393263e-03	4.59723917e-05
2.50000000e+00	1.29067891e-03	4.60071614e-05
2.50500000e+00	1.28504686e-03	4.60719767e-05
2.51000000e+00	1.28748557e-03	4.64365170e-05
2.51500000e+00	1.28555700e-03	4.64685329e-05
2.52000000e+00	1.26023076e-03	4.51731067e-05
2.52500000e+00	1.24312560e-03	4.47747056e-05
2.53000000e+00	1.22877642e-03	4.46489593e-05
2.53500000e+00	1.23366373e-03	4.53888028e-05
2.54000000e+00	1.23053727e-03	4.44819630e-05
2.54500000e+00	1.21574272e-03	4.41645121e-05
2.55000000e+00	1.22223113e-03	4.46141160e-05
2.55500000e+00	1.22824732e-03	4.51726155e-05
2.56000000e+00	1.21369039e-03	4.48938505e-05
2.56500000e+00	1.20563321e-03	4.42170863e-05
2.57000000e+00	1.20049316e-03	4.42182109e-05
2.57500000e+00	1.19513783e-03	4.41782011e-05
2.58000000e+00	1.16626583e-03	4.37838481e-05
2.58500000e+00	1.15398170e-03	4.29818492e-05
2.59000000e+00	1.17068974e-03	4.34666417e-05
2.59500000e+00	1.15741704e-03	4.30783233e-05
2.60000000e+00	1.14321879e-03	4.29115520e-05
2.60500000e+00	1.16477564e-03	4.47578721e-05
2.61000000e+00	1.15250096e-03	5.03642550e-05
2.61500000e+00	1.14824628e-03	5.55588722e-05
2.62000000e+00	1.12996578e-03	6.00451111e-05
2.62500000e+00	1.12476633e-03	6.47142196e-05
2.63000000e+00	1.10817828e-03	7.03734874e-05
2.63500000e+00	1.13572683e-03	7.98160690e-05
2.64000000e+00	1.11276293e-03	8.63389860e-05
2.64500000e+00	1.12961578e-03	9.35704391e-05
2.65000000e+00	1.11995219e-03	9.86790158e-05
2.65500000e+00	1.08647255e-03	1.03059327e-04
2.66000000e+00	1.07605795e-03	1.08953643e-04
2.66500000e+00	1.08010157e-03	1.22784790e-04
2.67000000e+00	1.06744911e-03	1.32389040e-04
2.67500000e+00	1.12621722e-03	1.61490126e-04
2.68000000e+00	1.03863421e-03	1.73625363e-04
2.68500000e+00	1.09288814e-03	2.42918280e-04
2.69000000e+00	1.09142632e-03	3.92386438e-04
2.69500000e+00	0.00000000e+00	0.00000000e+00
2.70000000e+00	0.00000000e+00	0.00000000e+00
