% Filename : WDL7c_00027_00014.h5
% Date & Time : 30-Oct-2025 17:07:08
% X-ray Energy (keV) : 13.30001
% Exposure Time (s) : 0.500
% Photodiode Value : 140556.000
% I0 of Sample : 0
% I0 of Standard : 1
% 
% q(A^-1)   I(q)    I(q)_SE
8.40000000e-01	0.00000000e+00	0.00000000e+00
8.45000000e-01	3.13983048e-03	5.49914673e-04
8.50000000e-01	2.89732920e-03	2.69130740e-04
8.55000000e-01	2.84687362e-03	2.32699743e-04
8.60000000e-01	2.82535812e-03	1.99508041e-04
8.65000000e-01	2.88582462e-03	1.87932282e-04
8.70000000e-01	2.89331919e-03	1.79721454e-04
8.75000000e-01	2.85341994e-03	1.70768172e-04
8.80000000e-01	2.83579737e-03	1.63917395e-04
8.85000000e-01	2.87667901e-03	1.57119410e-04
8.90000000e-01	2.91741854e-03	1.56032007e-04
8.95000000e-01	2.92650012e-03	1.52037225e-04
9.00000000e-01	2.90756830e-03	1.49652741e-04
9.05000000e-01	2.93183968e-03	1.44371417e-04
9.10000000e-01	2.94070822e-03	1.42044287e-04
9.15000000e-01	2.96919192e-03	1.41207964e-04
9.20000000e-01	2.94922443e-03	1.40164497e-04
9.25000000e-01	2.93230145e-03	1.33152892e-04
9.30000000e-01	2.97032682e-03	1.33445428e-04
9.35000000e-01	2.99661817e-03	1.32076009e-04
9.40000000e-01	2.94015991e-03	1.30003697e-04
9.45000000e-01	2.99329587e-03	1.29112274e-04
9.50000000e-01	2.99974562e-03	1.27608756e-04
9.55000000e-01	3.01522071e-03	1.25912948e-04
9.60000000e-01	3.01878246e-03	1.26083455e-04
9.65000000e-01	3.02695046e-03	1.24306393e-04
9.70000000e-01	3.02737417e-03	1.22288832e-04
9.75000000e-01	3.04600815e-03	1.21731028e-04
9.80000000e-01	3.03586166e-03	1.20248434e-04
9.85000000e-01	3.01277746e-03	1.19510836e-04
9.90000000e-01	3.04786503e-03	1.17175485e-04
9.95000000e-01	3.06423153e-03	1.17208457e-04
1.00000000e+00	3.04961984e-03	1.16153545e-04
1.00500000e+00	3.07095927e-03	1.16994419e-04
1.01000000e+00	3.11310346e-03	1.16076824e-04
1.01500000e+00	3.06254722e-03	1.12954596e-04
1.02000000e+00	3.07669990e-03	1.13549754e-04
1.02500000e+00	3.02612610e-03	1.10299469e-04
1.03000000e+00	3.05394238e-03	1.10888646e-04
1.03500000e+00	3.06494188e-03	1.09742242e-04
1.04000000e+00	3.07519577e-03	1.09400055e-04
1.04500000e+00	3.06958976e-03	1.09162161e-04
1.05000000e+00	3.03023449e-03	1.07122539e-04
1.05500000e+00	3.02976647e-03	1.05525230e-04
1.06000000e+00	3.03409487e-03	1.05420378e-04
1.06500000e+00	3.07979320e-03	1.07110701e-04
1.07000000e+00	3.06494291e-03	1.06252032e-04
1.07500000e+00	3.08117729e-03	1.06011795e-04
1.08000000e+00	3.09061385e-03	1.05786290e-04
1.08500000e+00	3.07477071e-03	1.05370881e-04
1.09000000e+00	3.08094831e-03	1.06148282e-04
1.09500000e+00	3.11391415e-03	1.05199751e-04
1.10000000e+00	3.13069293e-03	1.06359651e-04
1.10500000e+00	3.10495679e-03	1.05852167e-04
1.11000000e+00	3.12869855e-03	1.06901952e-04
1.11500000e+00	3.15505426e-03	1.06972181e-04
1.12000000e+00	3.16839347e-03	1.07848184e-04
1.12500000e+00	3.14387756e-03	1.06776397e-04
1.13000000e+00	3.17972522e-03	1.09226785e-04
1.13500000e+00	3.21196282e-03	1.08984237e-04
1.14000000e+00	3.21822944e-03	1.09055445e-04
1.14500000e+00	3.22475711e-03	1.10183765e-04
1.15000000e+00	3.20366253e-03	1.10053396e-04
1.15500000e+00	3.22113760e-03	1.09445135e-04
1.16000000e+00	3.23708501e-03	1.10424120e-04
1.16500000e+00	3.25018192e-03	1.10661034e-04
1.17000000e+00	3.26215827e-03	1.12435426e-04
1.17500000e+00	3.24550702e-03	1.10332264e-04
1.18000000e+00	3.27115149e-03	1.11667746e-04
1.18500000e+00	3.26637780e-03	1.11368101e-04
1.19000000e+00	3.25210187e-03	1.12176334e-04
1.19500000e+00	3.30103480e-03	1.12384070e-04
1.20000000e+00	3.30499972e-03	1.13209624e-04
1.20500000e+00	3.29287152e-03	1.12519419e-04
1.21000000e+00	3.30116653e-03	1.14296310e-04
1.21500000e+00	3.32199028e-03	1.13202828e-04
1.22000000e+00	3.34085685e-03	1.13948009e-04
1.22500000e+00	3.35108558e-03	1.14738845e-04
1.23000000e+00	3.33065720e-03	1.14953161e-04
1.23500000e+00	3.36992857e-03	1.15487839e-04
1.24000000e+00	3.37065954e-03	1.14955107e-04
1.24500000e+00	3.33813168e-03	1.14660353e-04
1.25000000e+00	3.35213096e-03	1.15852716e-04
1.25500000e+00	3.35159627e-03	1.14507236e-04
1.26000000e+00	3.38320870e-03	1.16329156e-04
1.26500000e+00	3.37774686e-03	1.15714229e-04
1.27000000e+00	3.40182897e-03	1.18101760e-04
1.27500000e+00	3.38384033e-03	1.16379579e-04
1.28000000e+00	3.38740224e-03	1.15720544e-04
1.28500000e+00	3.39045454e-03	1.16534603e-04
1.29000000e+00	3.40426599e-03	1.18007693e-04
1.29500000e+00	3.40239313e-03	1.16699803e-04
1.30000000e+00	3.39407906e-03	1.16275518e-04
1.30500000e+00	3.39043519e-03	1.16600596e-04
1.31000000e+00	3.42615093e-03	1.19318443e-04
1.31500000e+00	3.42932316e-03	1.17828395e-04
1.32000000e+00	3.41704917e-03	1.17347090e-04
1.32500000e+00	3.40993758e-03	1.17417757e-04
1.33000000e+00	3.41890627e-03	1.19102573e-04
1.33500000e+00	3.45326760e-03	1.18662559e-04
1.34000000e+00	3.45213778e-03	1.18816804e-04
1.34500000e+00	3.43723341e-03	1.18639279e-04
1.35000000e+00	3.41441622e-03	1.19059199e-04
1.35500000e+00	3.41147598e-03	1.17344263e-04
1.36000000e+00	3.42678537e-03	1.17656539e-04
1.36500000e+00	3.44091457e-03	1.18553152e-04
1.37000000e+00	3.41315501e-03	1.19339238e-04
1.37500000e+00	3.42923465e-03	1.18068278e-04
1.38000000e+00	3.43738001e-03	1.18557927e-04
1.38500000e+00	3.44444882e-03	1.19480939e-04
1.39000000e+00	3.43311173e-03	1.19883117e-04
1.39500000e+00	3.43450739e-03	1.18240738e-04
1.40000000e+00	3.48405770e-03	1.23506817e-04
1.40500000e+00	3.44693798e-03	1.31505671e-04
1.41000000e+00	3.44068236e-03	1.37509979e-04
1.41500000e+00	3.40339846e-03	1.40879838e-04
1.42000000e+00	3.37835129e-03	1.45476634e-04
1.42500000e+00	3.38948053e-03	1.50354977e-04
1.43000000e+00	3.38547967e-03	1.55838575e-04
1.43500000e+00	3.40751083e-03	1.61592960e-04
1.44000000e+00	3.34789706e-03	1.65036926e-04
1.44500000e+00	3.32931295e-03	1.68243617e-04
1.45000000e+00	3.42416234e-03	1.67362509e-04
1.45500000e+00	3.41954062e-03	1.50148286e-04
1.46000000e+00	3.41960062e-03	1.46769019e-04
1.46500000e+00	3.43410970e-03	1.44523482e-04
1.47000000e+00	3.42461414e-03	1.43981830e-04
1.47500000e+00	3.45604228e-03	1.41044455e-04
1.48000000e+00	3.43051167e-03	1.38431561e-04
1.48500000e+00	3.42356659e-03	1.38284058e-04
1.49000000e+00	3.41006978e-03	1.38019680e-04
1.49500000e+00	3.43690937e-03	1.36216987e-04
1.50000000e+00	3.45414180e-03	1.36348086e-04
1.50500000e+00	3.48344641e-03	1.38161965e-04
1.51000000e+00	3.49505545e-03	1.38924226e-04
1.51500000e+00	3.50765167e-03	1.37205059e-04
1.52000000e+00	3.54509669e-03	1.38237924e-04
1.52500000e+00	3.48282537e-03	1.35650222e-04
1.53000000e+00	3.48201363e-03	1.36415116e-04
1.53500000e+00	3.44236371e-03	1.31020762e-04
1.54000000e+00	3.44663200e-03	1.30986880e-04
1.54500000e+00	3.43414019e-03	1.30286585e-04
1.55000000e+00	3.42164788e-03	1.29423709e-04
1.55500000e+00	3.41107217e-03	1.26150890e-04
1.56000000e+00	3.35882390e-03	1.24420937e-04
1.56500000e+00	3.39035329e-03	1.24986506e-04
1.57000000e+00	3.37715429e-03	1.23677785e-04
1.57500000e+00	3.35286313e-03	1.20406222e-04
1.58000000e+00	3.35870218e-03	1.20443875e-04
1.58500000e+00	3.34344735e-03	1.19880531e-04
1.59000000e+00	3.30815541e-03	1.18722474e-04
1.59500000e+00	3.32732690e-03	1.17109093e-04
1.60000000e+00	3.31572075e-03	1.16609323e-04
1.60500000e+00	3.30856221e-03	1.16478709e-04
1.61000000e+00	3.31549218e-03	1.16185681e-04
1.61500000e+00	3.27847372e-03	1.13849504e-04
1.62000000e+00	3.28052891e-03	1.14430848e-04
1.62500000e+00	3.27856739e-03	1.15654894e-04
1.63000000e+00	3.28523276e-03	1.14601139e-04
1.63500000e+00	3.28403855e-03	1.14558227e-04
1.64000000e+00	3.25995624e-03	1.13797167e-04
1.64500000e+00	3.24864375e-03	1.14624204e-04
1.65000000e+00	3.25464891e-03	1.13612719e-04
1.65500000e+00	3.23345574e-03	1.12768541e-04
1.66000000e+00	3.23543488e-03	1.12942145e-04
1.66500000e+00	3.23191680e-03	1.14707642e-04
1.67000000e+00	3.23544602e-03	1.12509892e-04
1.67500000e+00	3.21494641e-03	1.12052419e-04
1.68000000e+00	3.21834334e-03	1.12564439e-04
1.68500000e+00	3.20220912e-03	1.13817704e-04
1.69000000e+00	3.20818456e-03	1.11771670e-04
1.69500000e+00	3.20493866e-03	1.11530701e-04
1.70000000e+00	3.19120787e-03	1.12325935e-04
1.70500000e+00	3.18625348e-03	1.12716482e-04
1.71000000e+00	3.17207375e-03	1.10724375e-04
1.71500000e+00	3.16171746e-03	1.10213287e-04
1.72000000e+00	3.17230082e-03	1.11495651e-04
1.72500000e+00	3.15132877e-03	1.11443691e-04
1.73000000e+00	3.14598878e-03	1.09788581e-04
1.73500000e+00	3.13663193e-03	1.09766329e-04
1.74000000e+00	3.11244549e-03	1.09197220e-04
1.74500000e+00	3.09983769e-03	1.09977636e-04
1.75000000e+00	3.11185507e-03	1.08347932e-04
1.75500000e+00	3.11133369e-03	1.09002536e-04
1.76000000e+00	3.10161874e-03	1.08654885e-04
1.76500000e+00	3.06027082e-03	1.08590885e-04
1.77000000e+00	3.09014751e-03	1.07858933e-04
1.77500000e+00	3.07818290e-03	1.07753205e-04
1.78000000e+00	3.04432436e-03	1.06925808e-04
1.78500000e+00	3.06808169e-03	1.08827847e-04
1.79000000e+00	3.06138860e-03	1.06740935e-04
1.79500000e+00	3.04131039e-03	1.06333799e-04
1.80000000e+00	3.02343526e-03	1.06396620e-04
1.80500000e+00	3.04309095e-03	1.07697939e-04
1.81000000e+00	3.04150529e-03	1.06094613e-04
1.81500000e+00	3.03612647e-03	1.05975275e-04
1.82000000e+00	2.99956977e-03	1.05416923e-04
1.82500000e+00	3.00199072e-03	1.06173641e-04
1.83000000e+00	3.00701394e-03	1.04924541e-04
1.83500000e+00	3.01868567e-03	1.05581954e-04
1.84000000e+00	2.98541908e-03	1.04995949e-04
1.84500000e+00	2.97261462e-03	1.05106050e-04
1.85000000e+00	2.97304515e-03	1.03916572e-04
1.85500000e+00	2.98593117e-03	1.04393732e-04
1.86000000e+00	2.95368702e-03	1.03990454e-04
1.86500000e+00	2.94574501e-03	1.03968251e-04
1.87000000e+00	2.93427682e-03	1.02493352e-04
1.87500000e+00	2.93267768e-03	1.02776360e-04
1.88000000e+00	2.91994627e-03	1.02721635e-04
1.88500000e+00	2.89648474e-03	1.02547019e-04
1.89000000e+00	2.87731866e-03	1.00425220e-04
1.89500000e+00	2.88898679e-03	1.01396426e-04
1.90000000e+00	2.88310967e-03	1.01462709e-04
1.90500000e+00	2.85963012e-03	1.00788751e-04
1.91000000e+00	2.86425274e-03	1.00207924e-04
1.91500000e+00	2.84902510e-03	9.97113544e-05
1.92000000e+00	2.82729436e-03	9.94993164e-05
1.92500000e+00	2.83403789e-03	9.98625036e-05
1.93000000e+00	2.80778015e-03	9.81873420e-05
1.93500000e+00	2.79906987e-03	9.80836166e-05
1.94000000e+00	2.78625237e-03	9.83910145e-05
1.94500000e+00	2.80031859e-03	9.85689858e-05
1.95000000e+00	2.77380549e-03	9.67414652e-05
1.95500000e+00	2.77435390e-03	9.72046788e-05
1.96000000e+00	2.77256395e-03	9.77993906e-05
1.96500000e+00	2.74569498e-03	9.68627268e-05
1.97000000e+00	2.74239894e-03	9.55609928e-05
1.97500000e+00	2.71846247e-03	9.53773270e-05
1.98000000e+00	2.72418807e-03	9.59607407e-05
1.98500000e+00	2.73350727e-03	9.65511295e-05
1.99000000e+00	2.70837784e-03	9.44021123e-05
1.99500000e+00	2.70328766e-03	9.46605503e-05
2.00000000e+00	2.68827958e-03	9.47690120e-05
2.00500000e+00	2.72130319e-03	9.61403378e-05
2.01000000e+00	2.68111257e-03	1.03948337e-04
2.01500000e+00	2.68016035e-03	1.10410408e-04
2.02000000e+00	2.65920510e-03	1.16743845e-04
2.02500000e+00	2.65140406e-03	1.20991458e-04
2.03000000e+00	2.62846525e-03	1.26924211e-04
2.03500000e+00	2.61589760e-03	1.31751888e-04
2.04000000e+00	2.57999401e-03	1.36180704e-04
2.04500000e+00	2.55904548e-03	1.42166659e-04
2.05000000e+00	2.56026675e-03	1.49252275e-04
2.05500000e+00	2.57522961e-03	1.47045707e-04
2.06000000e+00	2.62828155e-03	1.30712243e-04
2.06500000e+00	2.58420061e-03	1.22641209e-04
2.07000000e+00	2.58017494e-03	1.15888829e-04
2.07500000e+00	2.58114815e-03	1.13452231e-04
2.08000000e+00	2.56436745e-03	1.12531185e-04
2.08500000e+00	2.55592340e-03	1.11116555e-04
2.09000000e+00	2.56987486e-03	1.08322756e-04
2.09500000e+00	2.54137854e-03	1.06094236e-04
2.10000000e+00	2.52969231e-03	1.04818002e-04
2.10500000e+00	2.52856747e-03	1.04433441e-04
2.11000000e+00	2.51419892e-03	1.00103851e-04
2.11500000e+00	2.52970724e-03	9.96374969e-05
2.12000000e+00	2.47022732e-03	9.69122162e-05
2.12500000e+00	2.47429836e-03	9.67950779e-05
2.13000000e+00	2.46956161e-03	9.25731349e-05
2.13500000e+00	2.44766448e-03	9.06832574e-05
2.14000000e+00	2.40957973e-03	8.84831848e-05
2.14500000e+00	2.40045518e-03	8.83222005e-05
2.15000000e+00	2.40383445e-03	8.54977662e-05
2.15500000e+00	2.40308462e-03	8.56611731e-05
2.16000000e+00	2.38943149e-03	8.47668856e-05
2.16500000e+00	2.38053165e-03	8.50758651e-05
2.17000000e+00	2.36553293e-03	8.24940147e-05
2.17500000e+00	2.34466323e-03	8.19140223e-05
2.18000000e+00	2.32517213e-03	8.15403296e-05
2.18500000e+00	2.32666256e-03	8.19627722e-05
2.19000000e+00	2.30981265e-03	8.11530659e-05
2.19500000e+00	2.30403320e-03	8.05601110e-05
2.20000000e+00	2.30001859e-03	8.05546636e-05
2.20500000e+00	2.27520548e-03	7.99020978e-05
2.21000000e+00	2.26775009e-03	8.00598749e-05
2.21500000e+00	2.27144838e-03	7.93204050e-05
2.22000000e+00	2.24108632e-03	7.81469764e-05
2.22500000e+00	2.24156121e-03	7.88586024e-05
2.23000000e+00	2.22413311e-03	7.86009116e-05
2.23500000e+00	2.20544755e-03	7.69124611e-05
2.24000000e+00	2.20950375e-03	7.70828287e-05
2.24500000e+00	2.18143361e-03	7.66718251e-05
2.25000000e+00	2.18172053e-03	7.73467406e-05
2.25500000e+00	2.16737457e-03	7.54374682e-05
2.26000000e+00	2.14989531e-03	7.50450440e-05
2.26500000e+00	2.15745162e-03	7.56428241e-05
2.27000000e+00	2.13455997e-03	7.59167614e-05
2.27500000e+00	2.09421479e-03	7.29018054e-05
2.28000000e+00	2.08787156e-03	7.27729335e-05
2.28500000e+00	2.08118853e-03	7.30110339e-05
2.29000000e+00	2.06904775e-03	7.30324652e-05
2.29500000e+00	2.06094868e-03	7.25226246e-05
2.30000000e+00	2.04494729e-03	7.12535413e-05
2.30500000e+00	2.03358827e-03	7.10873230e-05
2.31000000e+00	2.02685114e-03	7.12083829e-05
2.31500000e+00	2.01461565e-03	7.13293010e-05
2.32000000e+00	1.99423804e-03	6.91552653e-05
2.32500000e+00	1.99318446e-03	6.96851265e-05
2.33000000e+00	1.97633789e-03	6.92537865e-05
2.33500000e+00	1.98255035e-03	7.02149496e-05
2.34000000e+00	1.95336337e-03	6.79429918e-05
2.34500000e+00	1.94759767e-03	6.77792397e-05
2.35000000e+00	1.93037943e-03	6.74330383e-05
2.35500000e+00	1.94081316e-03	6.87228912e-05
2.36000000e+00	1.90719388e-03	6.65997965e-05
2.36500000e+00	1.90967256e-03	6.67113076e-05
2.37000000e+00	1.88076335e-03	6.56867528e-05
2.37500000e+00	1.87974234e-03	6.61911981e-05
2.38000000e+00	1.86590404e-03	6.60004882e-05
2.38500000e+00	1.86947795e-03	6.51917310e-05
2.39000000e+00	1.85360319e-03	6.47957930e-05
2.39500000e+00	1.82977052e-03	6.43766055e-05
2.40000000e+00	1.81903010e-03	6.49313229e-05
2.40500000e+00	1.82945822e-03	6.39801425e-05
2.41000000e+00	1.79051751e-03	6.28904814e-05
2.41500000e+00	1.78658503e-03	6.27038464e-05
2.42000000e+00	1.78114332e-03	6.33828453e-05
2.42500000e+00	1.76766719e-03	6.28318183e-05
2.43000000e+00	1.75362921e-03	6.16848919e-05
2.43500000e+00	1.75282618e-03	6.18863838e-05
2.44000000e+00	1.74693364e-03	6.19139943e-05
2.44500000e+00	1.73962513e-03	6.24293467e-05
2.45000000e+00	1.72752261e-03	6.08796169e-05
2.45500000e+00	1.73407369e-03	6.12788133e-05
2.46000000e+00	1.69772212e-03	6.03359985e-05
2.46500000e+00	1.69690744e-03	6.09488431e-05
2.47000000e+00	1.70086651e-03	6.04451575e-05
2.47500000e+00	1.68983916e-03	5.97557018e-05
2.48000000e+00	1.66316118e-03	5.94122873e-05
2.48500000e+00	1.65978398e-03	5.91509857e-05
2.49000000e+00	1.65441586e-03	5.98295534e-05
2.49500000e+00	1.65016047e-03	5.85346874e-05
2.50000000e+00	1.62939772e-03	5.79144143e-05
2.50500000e+00	1.63724666e-03	5.85066665e-05
2.51000000e+00	1.61726623e-03	5.82294176e-05
2.51500000e+00	1.61966397e-03	5.85358182e-05
2.52000000e+00	1.60670760e-03	5.74183803e-05
2.52500000e+00	1.59080719e-03	5.71842586e-05
2.53000000e+00	1.58492717e-03	5.74872876e-05
2.53500000e+00	1.59713288e-03	5.86813167e-05
2.54000000e+00	1.58738008e-03	5.73329932e-05
2.54500000e+00	1.57038140e-03	5.69053570e-05
2.55000000e+00	1.56162038e-03	5.68643051e-05
2.55500000e+00	1.54706776e-03	5.67778129e-05
2.56000000e+00	1.53236340e-03	5.65933582e-05
2.56500000e+00	1.53654105e-03	5.62607106e-05
2.57000000e+00	1.52779763e-03	5.61260800e-05
2.57500000e+00	1.52671895e-03	5.63067040e-05
2.58000000e+00	1.52951424e-03	5.72606327e-05
2.58500000e+00	1.50029774e-03	5.57765184e-05
2.59000000e+00	1.49435800e-03	5.54017100e-05
2.59500000e+00	1.50217852e-03	5.58200387e-05
2.60000000e+00	1.47948768e-03	5.53809923e-05
2.60500000e+00	1.49857277e-03	5.73504154e-05
2.61000000e+00	1.48752849e-03	6.48915195e-05
2.61500000e+00	1.46422747e-03	7.07739867e-05
2.62000000e+00	1.43644763e-03	7.64811467e-05
2.62500000e+00	1.43638357e-03	8.27290869e-05
2.63000000e+00	1.40309238e-03	8.93844904e-05
2.63500000e+00	1.41006108e-03	9.94301336e-05
2.64000000e+00	1.46352824e-03	1.13359457e-04
2.64500000e+00	1.46056134e-03	1.20906074e-04
2.65000000e+00	1.44671397e-03	1.27080361e-04
2.65500000e+00	1.48263293e-03	1.39644570e-04
2.66000000e+00	1.41891076e-03	1.43358993e-04
2.66500000e+00	1.44106922e-03	1.63395506e-04
2.67000000e+00	1.45036995e-03	1.78047008e-04
2.67500000e+00	1.44373338e-03	2.07300337e-04
2.68000000e+00	1.37561146e-03	2.29773222e-04
2.68500000e+00	1.44278644e-03	3.21498930e-04
2.69000000e+00	1.45562798e-03	5.16979579e-04
2.69500000e+00	0.00000000e+00	0.00000000e+00
2.70000000e+00	0.00000000e+00	0.00000000e+00
