% Filename : WDL7_00012_00264.h5
% Date & Time : 30-Oct-2025 15:02:01
% X-ray Energy (keV) : 13.30001
% Exposure Time (s) : 0.500
% Photodiode Value : 126726.000
% I0 of Sample : 0
% I0 of Standard : 1
% 
% q(A^-1)   I(q)    I(q)_SE
8.40000000e-01	0.00000000e+00	0.00000000e+00
8.45000000e-01	8.62682711e-03	1.50607757e-03
8.50000000e-01	8.26333505e-03	7.63231151e-04
8.55000000e-01	8.13137809e-03	6.61936800e-04
8.60000000e-01	8.19112156e-03	5.76623208e-04
8.65000000e-01	8.22254482e-03	5.33741728e-04
8.70000000e-01	8.37498111e-03	5.18017709e-04
8.75000000e-01	8.56457752e-03	5.09680006e-04
8.80000000e-01	8.92331165e-03	5.13382556e-04
8.85000000e-01	8.88193253e-03	4.83148536e-04
8.90000000e-01	8.68407666e-03	4.62242887e-04
8.95000000e-01	8.72157740e-03	4.51263679e-04
9.00000000e-01	8.80127176e-03	4.51048868e-04
9.05000000e-01	8.84472910e-03	4.33406605e-04
9.10000000e-01	8.92134753e-03	4.28905811e-04
9.15000000e-01	9.07292367e-03	4.29280130e-04
9.20000000e-01	9.23685738e-03	4.36748991e-04
9.25000000e-01	9.37090335e-03	4.23627415e-04
9.30000000e-01	9.50777365e-03	4.25633419e-04
9.35000000e-01	9.59070382e-03	4.21058349e-04
9.40000000e-01	9.74708935e-03	4.29010503e-04
9.45000000e-01	9.95623559e-03	4.27349821e-04
9.50000000e-01	1.01273861e-02	4.28467913e-04
9.55000000e-01	1.03034515e-02	4.28159798e-04
9.60000000e-01	1.05458562e-02	4.38468138e-04
9.65000000e-01	1.07062643e-02	4.37665451e-04
9.70000000e-01	1.09549103e-02	4.40628756e-04
9.75000000e-01	1.12094848e-02	4.45828156e-04
9.80000000e-01	1.14077537e-02	4.49927395e-04
9.85000000e-01	1.16844705e-02	4.60983996e-04
9.90000000e-01	1.19005108e-02	4.55491016e-04
9.95000000e-01	1.21631146e-02	4.63320460e-04
1.00000000e+00	1.24867693e-02	4.73172320e-04
1.00500000e+00	1.27139659e-02	4.81880981e-04
1.01000000e+00	1.30273203e-02	4.83325123e-04
1.01500000e+00	1.32474342e-02	4.86399353e-04
1.02000000e+00	1.35482974e-02	4.97238498e-04
1.02500000e+00	1.38418412e-02	5.01564160e-04
1.03000000e+00	1.40506221e-02	5.07096209e-04
1.03500000e+00	1.42607953e-02	5.07221107e-04
1.04000000e+00	1.44690486e-02	5.10707261e-04
1.04500000e+00	1.46524454e-02	5.17487764e-04
1.05000000e+00	1.48555929e-02	5.20725523e-04
1.05500000e+00	1.49859253e-02	5.16674731e-04
1.06000000e+00	1.51223226e-02	5.20238547e-04
1.06500000e+00	1.52229524e-02	5.24371008e-04
1.07000000e+00	1.53531720e-02	5.27831007e-04
1.07500000e+00	1.54539607e-02	5.27828773e-04
1.08000000e+00	1.54689705e-02	5.25244943e-04
1.08500000e+00	1.55110632e-02	5.27353778e-04
1.09000000e+00	1.55172434e-02	5.30501477e-04
1.09500000e+00	1.55388576e-02	5.20904933e-04
1.10000000e+00	1.56103799e-02	5.26949906e-04
1.10500000e+00	1.56480134e-02	5.29845620e-04
1.11000000e+00	1.56605470e-02	5.31024075e-04
1.11500000e+00	1.57539236e-02	5.30461899e-04
1.12000000e+00	1.57698751e-02	5.33408079e-04
1.12500000e+00	1.58411993e-02	5.34481191e-04
1.13000000e+00	1.58863078e-02	5.42417588e-04
1.13500000e+00	1.59883043e-02	5.39545278e-04
1.14000000e+00	1.60073638e-02	5.38989405e-04
1.14500000e+00	1.60901782e-02	5.46266407e-04
1.15000000e+00	1.61381425e-02	5.50770846e-04
1.15500000e+00	1.61658172e-02	5.46045978e-04
1.16000000e+00	1.62186165e-02	5.49735673e-04
1.16500000e+00	1.61803757e-02	5.47729209e-04
1.17000000e+00	1.61555425e-02	5.53924011e-04
1.17500000e+00	1.62275262e-02	5.48337482e-04
1.18000000e+00	1.61128451e-02	5.46961121e-04
1.18500000e+00	1.58714002e-02	5.38001712e-04
1.19000000e+00	1.57337022e-02	5.39161872e-04
1.19500000e+00	1.56078934e-02	5.28363739e-04
1.20000000e+00	1.54569124e-02	5.26205485e-04
1.20500000e+00	1.52714678e-02	5.18972046e-04
1.21000000e+00	1.52341532e-02	5.24305428e-04
1.21500000e+00	1.53478727e-02	5.19791123e-04
1.22000000e+00	1.54390818e-02	5.23330613e-04
1.22500000e+00	1.51299446e-02	5.14935977e-04
1.23000000e+00	1.47132786e-02	5.04645808e-04
1.23500000e+00	1.43651181e-02	4.89540372e-04
1.24000000e+00	1.40921814e-02	4.78084575e-04
1.24500000e+00	1.37627316e-02	4.70311183e-04
1.25000000e+00	1.35656174e-02	4.66289004e-04
1.25500000e+00	1.34478013e-02	4.56874067e-04
1.26000000e+00	1.32783440e-02	4.53709509e-04
1.26500000e+00	1.30898109e-02	4.45729405e-04
1.27000000e+00	1.30518921e-02	4.51052043e-04
1.27500000e+00	1.29783630e-02	4.43933501e-04
1.28000000e+00	1.28616291e-02	4.37230545e-04
1.28500000e+00	1.28311253e-02	4.38722336e-04
1.29000000e+00	1.28453767e-02	4.42999594e-04
1.29500000e+00	1.27944478e-02	4.36664092e-04
1.30000000e+00	1.27286397e-02	4.33621225e-04
1.30500000e+00	1.28030160e-02	4.38203596e-04
1.31000000e+00	1.27484318e-02	4.41390341e-04
1.31500000e+00	1.27506913e-02	4.36112520e-04
1.32000000e+00	1.28089413e-02	4.37569370e-04
1.32500000e+00	1.27820648e-02	4.37917584e-04
1.33000000e+00	1.28897433e-02	4.46904129e-04
1.33500000e+00	1.29413482e-02	4.42553662e-04
1.34000000e+00	1.30008345e-02	4.45116690e-04
1.34500000e+00	1.30875193e-02	4.49693045e-04
1.35000000e+00	1.31748075e-02	4.56887951e-04
1.35500000e+00	1.32755371e-02	4.54308869e-04
1.36000000e+00	1.34207004e-02	4.58448695e-04
1.36500000e+00	1.35516656e-02	4.64595924e-04
1.37000000e+00	1.37279216e-02	4.77570167e-04
1.37500000e+00	1.40917091e-02	4.82847300e-04
1.38000000e+00	1.42958826e-02	4.91003271e-04
1.38500000e+00	1.44464386e-02	4.98667138e-04
1.39000000e+00	1.46824735e-02	5.10138125e-04
1.39500000e+00	1.49945520e-02	5.13397534e-04
1.40000000e+00	1.56958253e-02	5.55172914e-04
1.40500000e+00	1.60366800e-02	6.09166099e-04
1.41000000e+00	1.70354796e-02	6.77182638e-04
1.41500000e+00	1.73042805e-02	7.12503664e-04
1.42000000e+00	1.73444892e-02	7.42708470e-04
1.42500000e+00	1.76780271e-02	7.79689995e-04
1.43000000e+00	1.80077853e-02	8.24046339e-04
1.43500000e+00	1.83635487e-02	8.65899202e-04
1.44000000e+00	1.90057942e-02	9.32895370e-04
1.44500000e+00	1.92439004e-02	9.67767492e-04
1.45000000e+00	1.98549537e-02	9.65112769e-04
1.45500000e+00	1.99547115e-02	8.71409058e-04
1.46000000e+00	2.01142180e-02	8.58389187e-04
1.46500000e+00	1.99936727e-02	8.37703310e-04
1.47000000e+00	1.99933151e-02	8.36101411e-04
1.47500000e+00	1.99295981e-02	8.09068756e-04
1.48000000e+00	1.98465379e-02	7.97323074e-04
1.48500000e+00	1.98460166e-02	7.97840015e-04
1.49000000e+00	1.99565063e-02	8.04620104e-04
1.49500000e+00	2.01578162e-02	7.96336121e-04
1.50000000e+00	2.03048488e-02	7.97742445e-04
1.50500000e+00	2.05806129e-02	8.13031491e-04
1.51000000e+00	2.10677860e-02	8.34155006e-04
1.51500000e+00	2.18390605e-02	8.50999645e-04
1.52000000e+00	2.25658256e-02	8.76362414e-04
1.52500000e+00	2.29788061e-02	8.91666354e-04
1.53000000e+00	2.33719185e-02	9.12422802e-04
1.53500000e+00	2.40720452e-02	9.12932658e-04
1.54000000e+00	2.48319931e-02	9.40432845e-04
1.54500000e+00	2.57303716e-02	9.72174017e-04
1.55000000e+00	2.66320454e-02	1.00354749e-03
1.55500000e+00	2.77023012e-02	1.02028935e-03
1.56000000e+00	2.87372317e-02	1.06074028e-03
1.56500000e+00	2.97166157e-02	1.09105293e-03
1.57000000e+00	3.06691849e-02	1.11838212e-03
1.57500000e+00	3.16546256e-02	1.13291978e-03
1.58000000e+00	3.24101256e-02	1.15786380e-03
1.58500000e+00	3.29662064e-02	1.17781934e-03
1.59000000e+00	3.34350218e-02	1.19556545e-03
1.59500000e+00	3.34435991e-02	1.17320738e-03
1.60000000e+00	3.34131661e-02	1.17173698e-03
1.60500000e+00	3.29937209e-02	1.15808045e-03
1.61000000e+00	3.23464044e-02	1.13066136e-03
1.61500000e+00	3.15991772e-02	1.09472391e-03
1.62000000e+00	3.05725706e-02	1.06344283e-03
1.62500000e+00	2.97136537e-02	1.04575657e-03
1.63000000e+00	2.99401213e-02	1.04244178e-03
1.63500000e+00	2.94547119e-02	1.02847049e-03
1.64000000e+00	2.63744159e-02	9.19152562e-04
1.64500000e+00	2.40784623e-02	8.47572400e-04
1.65000000e+00	2.25391888e-02	7.84549849e-04
1.65500000e+00	2.12439456e-02	7.38348478e-04
1.66000000e+00	2.00215668e-02	6.96666003e-04
1.66500000e+00	1.89677898e-02	6.70920870e-04
1.67000000e+00	1.80657955e-02	6.25877134e-04
1.67500000e+00	1.73352994e-02	6.01945369e-04
1.68000000e+00	1.65830785e-02	5.77418784e-04
1.68500000e+00	1.59446530e-02	5.64484711e-04
1.69000000e+00	1.53929344e-02	5.34498832e-04
1.69500000e+00	1.48110758e-02	5.13125521e-04
1.70000000e+00	1.43220879e-02	5.02387519e-04
1.70500000e+00	1.38764941e-02	4.88456717e-04
1.71000000e+00	1.35376594e-02	4.70430564e-04
1.71500000e+00	1.32017540e-02	4.58462677e-04
1.72000000e+00	1.29862300e-02	4.54540204e-04
1.72500000e+00	1.26958002e-02	4.47229937e-04
1.73000000e+00	1.24784739e-02	4.33814973e-04
1.73500000e+00	1.22434383e-02	4.26706715e-04
1.74000000e+00	1.20098937e-02	4.19654786e-04
1.74500000e+00	1.18992338e-02	4.20583082e-04
1.75000000e+00	1.17801730e-02	4.08457210e-04
1.75500000e+00	1.16976418e-02	4.08198853e-04
1.76000000e+00	1.16428491e-02	4.06125229e-04
1.76500000e+00	1.14938891e-02	4.06131064e-04
1.77000000e+00	1.12088060e-02	3.89364711e-04
1.77500000e+00	1.09978829e-02	3.83081044e-04
1.78000000e+00	1.09011568e-02	3.80865801e-04
1.78500000e+00	1.08997732e-02	3.84949682e-04
1.79000000e+00	1.10099176e-02	3.90577037e-04
1.79500000e+00	1.07466968e-02	3.74404405e-04
1.80000000e+00	1.05069577e-02	3.67968383e-04
1.80500000e+00	1.04434060e-02	3.68069071e-04
1.81000000e+00	1.04324876e-02	3.62640932e-04
1.81500000e+00	1.03280553e-02	3.58905096e-04
1.82000000e+00	1.03234554e-02	3.61126249e-04
1.82500000e+00	1.03853530e-02	3.65530960e-04
1.83000000e+00	1.03739163e-02	3.60534356e-04
1.83500000e+00	1.03390339e-02	3.60021804e-04
1.84000000e+00	1.02615833e-02	3.59254111e-04
1.84500000e+00	1.02138438e-02	3.59484117e-04
1.85000000e+00	1.02280410e-02	3.56020650e-04
1.85500000e+00	1.03473747e-02	3.61452201e-04
1.86000000e+00	1.00938143e-02	3.53819782e-04
1.86500000e+00	9.95209541e-03	3.49677726e-04
1.87000000e+00	9.95956614e-03	3.46074953e-04
1.87500000e+00	9.93760714e-03	3.46489924e-04
1.88000000e+00	1.00105650e-02	3.50693632e-04
1.88500000e+00	1.00142336e-02	3.53257458e-04
1.89000000e+00	9.86361566e-03	3.42647041e-04
1.89500000e+00	9.80964595e-03	3.42564712e-04
1.90000000e+00	9.74978640e-03	3.41489772e-04
1.90500000e+00	9.73726781e-03	3.41348675e-04
1.91000000e+00	9.80424727e-03	3.41476395e-04
1.91500000e+00	9.87245210e-03	3.44345685e-04
1.92000000e+00	9.87010046e-03	3.45894643e-04
1.92500000e+00	1.00359106e-02	3.52718396e-04
1.93000000e+00	9.96669588e-03	3.46405538e-04
1.93500000e+00	1.01937802e-02	3.55970860e-04
1.94000000e+00	1.05527287e-02	3.74170713e-04
1.94500000e+00	1.02481383e-02	3.59255652e-04
1.95000000e+00	1.02415748e-02	3.55546075e-04
1.95500000e+00	1.03529841e-02	3.60864078e-04
1.96000000e+00	1.03578152e-02	3.63358142e-04
1.96500000e+00	1.05096003e-02	3.69158121e-04
1.97000000e+00	1.04952648e-02	3.63913458e-04
1.97500000e+00	1.05500183e-02	3.68238352e-04
1.98000000e+00	1.05369942e-02	3.69335300e-04
1.98500000e+00	1.05623190e-02	3.73484944e-04
1.99000000e+00	1.04024244e-02	3.60712260e-04
1.99500000e+00	1.03228465e-02	3.59656687e-04
2.00000000e+00	1.02566593e-02	3.59778258e-04
2.00500000e+00	1.03378252e-02	3.63236573e-04
2.01000000e+00	1.01710399e-02	3.92174324e-04
2.01500000e+00	1.00819455e-02	4.12884064e-04
2.02000000e+00	1.00401252e-02	4.38132927e-04
2.02500000e+00	9.98112256e-03	4.52729724e-04
2.03000000e+00	9.92912318e-03	4.76955386e-04
2.03500000e+00	9.96118836e-03	4.99622916e-04
2.04000000e+00	9.98405318e-03	5.23579331e-04
2.04500000e+00	1.00040463e-02	5.51541306e-04
2.05000000e+00	1.01560031e-02	5.88438756e-04
2.05500000e+00	1.07832484e-02	6.11998847e-04
2.06000000e+00	1.14739549e-02	5.66507807e-04
2.06500000e+00	1.34523083e-02	6.36470140e-04
2.07000000e+00	2.17378145e-02	1.04676377e-03
2.07500000e+00	4.68269853e-02	3.44093656e-03
2.08000000e+00	3.21655889e-02	1.56641963e-03
2.08500000e+00	1.71985625e-02	7.54093856e-04
2.09000000e+00	1.27228904e-02	5.34815578e-04
2.09500000e+00	1.11827472e-02	4.64309381e-04
2.10000000e+00	1.04592788e-02	4.31264578e-04
2.10500000e+00	1.01741689e-02	4.18097204e-04
2.11000000e+00	9.90888862e-03	3.92204322e-04
2.11500000e+00	9.84513178e-03	3.85969885e-04
2.12000000e+00	9.68512279e-03	3.77679254e-04
2.12500000e+00	9.59243335e-03	3.72881548e-04
2.13000000e+00	9.49480897e-03	3.53935877e-04
2.13500000e+00	9.45146023e-03	3.48121259e-04
2.14000000e+00	9.34531280e-03	3.40942542e-04
2.14500000e+00	9.27122093e-03	3.38983226e-04
2.15000000e+00	9.28460727e-03	3.28356515e-04
2.15500000e+00	9.20366442e-03	3.26202448e-04
2.16000000e+00	9.12525954e-03	3.21745715e-04
2.16500000e+00	9.14149329e-03	3.24567981e-04
2.17000000e+00	9.06086699e-03	3.13881542e-04
2.17500000e+00	9.06287831e-03	3.14738117e-04
2.18000000e+00	9.05470821e-03	3.15490117e-04
2.18500000e+00	8.99553125e-03	3.15010703e-04
2.19000000e+00	8.90520208e-03	3.10763498e-04
2.19500000e+00	8.82496389e-03	3.06245041e-04
2.20000000e+00	8.72307308e-03	3.03447440e-04
2.20500000e+00	8.67469913e-03	3.02737628e-04
2.21000000e+00	8.77342751e-03	3.07687670e-04
2.21500000e+00	9.10779252e-03	3.16430833e-04
2.22000000e+00	9.43533154e-03	3.28433681e-04
2.22500000e+00	8.68296153e-03	3.03742897e-04
2.23000000e+00	8.37511218e-03	2.94283311e-04
2.23500000e+00	8.35608842e-03	2.89617805e-04
2.24000000e+00	8.21773768e-03	2.84935145e-04
2.24500000e+00	8.17095709e-03	2.85145505e-04
2.25000000e+00	8.13129453e-03	2.86292457e-04
2.25500000e+00	8.10558209e-03	2.80215463e-04
2.26000000e+00	8.05414779e-03	2.79424968e-04
2.26500000e+00	8.03864636e-03	2.79895363e-04
2.27000000e+00	7.97786424e-03	2.81731036e-04
2.27500000e+00	7.93609510e-03	2.74585654e-04
2.28000000e+00	7.88914882e-03	2.73016869e-04
2.28500000e+00	7.88163225e-03	2.74580737e-04
2.29000000e+00	7.94204204e-03	2.78211680e-04
2.29500000e+00	8.07423744e-03	2.82083889e-04
2.30000000e+00	8.11705755e-03	2.80756512e-04
2.30500000e+00	8.12256582e-03	2.81675022e-04
2.31000000e+00	8.19651194e-03	2.85707533e-04
2.31500000e+00	8.28925815e-03	2.91331477e-04
2.32000000e+00	8.40354308e-03	2.89286705e-04
2.32500000e+00	8.53175971e-03	2.96179824e-04
2.33000000e+00	8.83433552e-03	3.08853746e-04
2.33500000e+00	8.94830500e-03	3.15984467e-04
2.34000000e+00	8.87882660e-03	3.07195287e-04
2.34500000e+00	8.97393896e-03	3.10676922e-04
2.35000000e+00	9.11794668e-03	3.17062665e-04
2.35500000e+00	9.25993686e-03	3.26387472e-04
2.36000000e+00	9.43894327e-03	3.28317332e-04
2.36500000e+00	9.57930619e-03	3.33128442e-04
2.37000000e+00	9.71870446e-03	3.38235191e-04
2.37500000e+00	9.87143584e-03	3.46626892e-04
2.38000000e+00	1.00346115e-02	3.54263991e-04
2.38500000e+00	1.02034304e-02	3.54982742e-04
2.39000000e+00	1.03826556e-02	3.62724516e-04
2.39500000e+00	1.04832320e-02	3.68172336e-04
2.40000000e+00	1.05930185e-02	3.77470894e-04
2.40500000e+00	1.07249882e-02	3.74612850e-04
2.41000000e+00	1.09582378e-02	3.84752997e-04
2.41500000e+00	1.14920310e-02	4.03636264e-04
2.42000000e+00	1.28703368e-02	4.73112513e-04
2.42500000e+00	1.50573692e-02	5.42573528e-04
2.43000000e+00	1.79719947e-02	6.35776717e-04
2.43500000e+00	2.02132822e-02	7.16250722e-04
2.44000000e+00	1.88252310e-02	6.69701394e-04
2.44500000e+00	1.59508248e-02	5.75053341e-04
2.45000000e+00	1.38821493e-02	4.90984888e-04
2.45500000e+00	1.27793196e-02	4.53557720e-04
2.46000000e+00	1.20356979e-02	4.29451892e-04
2.46500000e+00	1.12547520e-02	4.06944216e-04
2.47000000e+00	1.09935092e-02	3.93329384e-04
2.47500000e+00	1.05481681e-02	3.75823583e-04
2.48000000e+00	1.02742615e-02	3.69160718e-04
2.48500000e+00	1.02009653e-02	3.66797838e-04
2.49000000e+00	1.00706412e-02	3.67881419e-04
2.49500000e+00	9.87592950e-03	3.53842452e-04
2.50000000e+00	9.65114479e-03	3.46928989e-04
2.50500000e+00	9.57969777e-03	3.46523036e-04
2.51000000e+00	9.57486184e-03	3.49160037e-04
2.51500000e+00	9.96919233e-03	3.63988519e-04
2.52000000e+00	1.16406475e-02	4.25801372e-04
2.52500000e+00	1.33002404e-02	5.15537708e-04
2.53000000e+00	1.45846402e-02	7.54453003e-04
2.53500000e+00	1.17825590e-02	5.34918904e-04
2.54000000e+00	9.70598954e-03	3.55870077e-04
2.54500000e+00	9.07934421e-03	3.33128109e-04
2.55000000e+00	8.83343766e-03	3.25596741e-04
2.55500000e+00	8.67244384e-03	3.22737023e-04
2.56000000e+00	8.63092585e-03	3.22872073e-04
2.56500000e+00	8.73227223e-03	3.30832997e-04
2.57000000e+00	8.47049702e-03	3.15407325e-04
2.57500000e+00	8.39499527e-03	3.13703726e-04
2.58000000e+00	8.28301098e-03	3.14907048e-04
2.58500000e+00	8.22873836e-03	3.10086787e-04
2.59000000e+00	8.19886097e-03	3.07584787e-04
2.59500000e+00	8.16857750e-03	3.08087670e-04
2.60000000e+00	8.12174212e-03	3.08908578e-04
2.60500000e+00	8.17478502e-03	3.18012388e-04
2.61000000e+00	7.87713406e-03	3.52270333e-04
2.61500000e+00	7.67473740e-03	3.83930028e-04
2.62000000e+00	7.43319638e-03	4.13390221e-04
2.62500000e+00	7.14046656e-03	4.36381962e-04
2.63000000e+00	7.50850667e-03	4.99632647e-04
2.63500000e+00	8.03994492e-03	5.72704875e-04
2.64000000e+00	8.58186659e-03	6.58170177e-04
2.64500000e+00	8.54931669e-03	7.00074009e-04
2.65000000e+00	8.65033893e-03	7.49071027e-04
2.65500000e+00	8.77078978e-03	8.16618604e-04
2.66000000e+00	8.63061310e-03	8.61016161e-04
2.66500000e+00	8.69673125e-03	9.75418733e-04
2.67000000e+00	8.92254417e-03	1.08556206e-03
2.67500000e+00	8.61816605e-03	1.22226855e-03
2.68000000e+00	8.83939184e-03	1.45813641e-03
2.68500000e+00	8.56055510e-03	1.88755961e-03
2.69000000e+00	6.42988776e-03	2.29696636e-03
2.69500000e+00	0.00000000e+00	0.00000000e+00
2.70000000e+00	0.00000000e+00	0.00000000e+00
