% Filename : WEC10_00045_00013.h5
% Date & Time : 30-Oct-2025 18:06:01
% X-ray Energy (keV) : 13.30001
% Exposure Time (s) : 0.500
% Photodiode Value : 141341.000
% I0 of Sample : 0
% I0 of Standard : 1
% 
% q(A^-1)   I(q)    I(q)_SE
8.40000000e-01	0.00000000e+00	0.00000000e+00
8.45000000e-01	3.19357151e-03	5.58830053e-04
8.50000000e-01	3.14607186e-03	2.91527796e-04
8.55000000e-01	3.10237860e-03	2.53450273e-04
8.60000000e-01	3.14415574e-03	2.22120713e-04
8.65000000e-01	3.11009357e-03	2.02625248e-04
8.70000000e-01	3.08665350e-03	1.91684531e-04
8.75000000e-01	3.06436662e-03	1.83117004e-04
8.80000000e-01	3.09252204e-03	1.78657142e-04
8.85000000e-01	3.12972474e-03	1.70885573e-04
8.90000000e-01	3.10084155e-03	1.65794884e-04
8.95000000e-01	3.11097740e-03	1.61585979e-04
9.00000000e-01	3.15231913e-03	1.62171610e-04
9.05000000e-01	3.12911549e-03	1.53971581e-04
9.10000000e-01	3.13815454e-03	1.51608218e-04
9.15000000e-01	3.12588576e-03	1.48688530e-04
9.20000000e-01	3.13296456e-03	1.48887211e-04
9.25000000e-01	3.16924910e-03	1.44024922e-04
9.30000000e-01	3.17438680e-03	1.42769195e-04
9.35000000e-01	3.14787001e-03	1.38871154e-04
9.40000000e-01	3.18577682e-03	1.41018373e-04
9.45000000e-01	3.15940488e-03	1.36302933e-04
9.50000000e-01	3.18299906e-03	1.35395014e-04
9.55000000e-01	3.17338901e-03	1.32466019e-04
9.60000000e-01	3.14991717e-03	1.31652768e-04
9.65000000e-01	3.17831014e-03	1.30655455e-04
9.70000000e-01	3.17091490e-03	1.28196856e-04
9.75000000e-01	3.19013548e-03	1.27389697e-04
9.80000000e-01	3.17003658e-03	1.25665221e-04
9.85000000e-01	3.17362255e-03	1.25974860e-04
9.90000000e-01	3.20405587e-03	1.23179070e-04
9.95000000e-01	3.19013220e-03	1.22099917e-04
1.00000000e+00	3.18752385e-03	1.21394654e-04
1.00500000e+00	3.20312183e-03	1.22083055e-04
1.01000000e+00	3.16561671e-03	1.18106833e-04
1.01500000e+00	3.18479331e-03	1.17513413e-04
1.02000000e+00	3.17747750e-03	1.17293667e-04
1.02500000e+00	3.13921761e-03	1.14411252e-04
1.03000000e+00	3.20177570e-03	1.16335851e-04
1.03500000e+00	3.17674064e-03	1.13704360e-04
1.04000000e+00	3.15409148e-03	1.12220314e-04
1.04500000e+00	3.15044058e-03	1.12116260e-04
1.05000000e+00	3.14720841e-03	1.11317694e-04
1.05500000e+00	3.13792392e-03	1.09197942e-04
1.06000000e+00	3.14730289e-03	1.09372403e-04
1.06500000e+00	3.16817031e-03	1.10262352e-04
1.07000000e+00	3.17193710e-03	1.10082666e-04
1.07500000e+00	3.18192648e-03	1.09523348e-04
1.08000000e+00	3.18166421e-03	1.08943634e-04
1.08500000e+00	3.19559382e-03	1.09530870e-04
1.09000000e+00	3.19856418e-03	1.10230012e-04
1.09500000e+00	3.18500352e-03	1.07495642e-04
1.10000000e+00	3.20355906e-03	1.08904519e-04
1.10500000e+00	3.20099607e-03	1.09225885e-04
1.11000000e+00	3.20259634e-03	1.09450602e-04
1.11500000e+00	3.24585530e-03	1.10043613e-04
1.12000000e+00	3.27139297e-03	1.11334906e-04
1.12500000e+00	3.26490946e-03	1.10882275e-04
1.13000000e+00	3.25488252e-03	1.11806120e-04
1.13500000e+00	3.25818705e-03	1.10592273e-04
1.14000000e+00	3.28667621e-03	1.11336075e-04
1.14500000e+00	3.30855821e-03	1.13029669e-04
1.15000000e+00	3.29698869e-03	1.13231785e-04
1.15500000e+00	3.31340582e-03	1.12544593e-04
1.16000000e+00	3.32155020e-03	1.13308872e-04
1.16500000e+00	3.34184548e-03	1.13802578e-04
1.17000000e+00	3.32857491e-03	1.14696485e-04
1.17500000e+00	3.37294387e-03	1.14736767e-04
1.18000000e+00	3.40066867e-03	1.16054152e-04
1.18500000e+00	3.36178343e-03	1.14608705e-04
1.19000000e+00	3.38822767e-03	1.16812239e-04
1.19500000e+00	3.40932902e-03	1.15988535e-04
1.20000000e+00	3.40187420e-03	1.16470898e-04
1.20500000e+00	3.43112616e-03	1.17145688e-04
1.21000000e+00	3.42410915e-03	1.18475573e-04
1.21500000e+00	3.42830659e-03	1.16737961e-04
1.22000000e+00	3.45303643e-03	1.17671038e-04
1.22500000e+00	3.42736036e-03	1.17290327e-04
1.23000000e+00	3.45017405e-03	1.18976380e-04
1.23500000e+00	3.47945124e-03	1.19224812e-04
1.24000000e+00	3.48577564e-03	1.18875554e-04
1.24500000e+00	3.50007469e-03	1.20233710e-04
1.25000000e+00	3.50062512e-03	1.21020722e-04
1.25500000e+00	3.53065206e-03	1.20544877e-04
1.26000000e+00	3.53286936e-03	1.21402456e-04
1.26500000e+00	3.53536292e-03	1.20985014e-04
1.27000000e+00	3.53750660e-03	1.22756566e-04
1.27500000e+00	3.55626326e-03	1.22249075e-04
1.28000000e+00	3.55861046e-03	1.21508241e-04
1.28500000e+00	3.57955992e-03	1.22957156e-04
1.29000000e+00	3.55936832e-03	1.23381519e-04
1.29500000e+00	3.59958066e-03	1.23463520e-04
1.30000000e+00	3.60187904e-03	1.23266697e-04
1.30500000e+00	3.63761642e-03	1.25041894e-04
1.31000000e+00	3.63188300e-03	1.26413067e-04
1.31500000e+00	3.66441333e-03	1.25937298e-04
1.32000000e+00	3.67858006e-03	1.26244303e-04
1.32500000e+00	3.65898721e-03	1.25974508e-04
1.33000000e+00	3.67338169e-03	1.27956005e-04
1.33500000e+00	3.70718656e-03	1.27421005e-04
1.34000000e+00	3.73998636e-03	1.28640072e-04
1.34500000e+00	3.75446817e-03	1.29644071e-04
1.35000000e+00	3.75774531e-03	1.30998157e-04
1.35500000e+00	3.79598544e-03	1.30485579e-04
1.36000000e+00	3.80426767e-03	1.30564902e-04
1.36500000e+00	3.82052440e-03	1.31544357e-04
1.37000000e+00	3.81588706e-03	1.33436680e-04
1.37500000e+00	3.81534289e-03	1.31282385e-04
1.38000000e+00	3.87018631e-03	1.33548029e-04
1.38500000e+00	3.87894525e-03	1.34521142e-04
1.39000000e+00	3.83861547e-03	1.34023093e-04
1.39500000e+00	3.87441794e-03	1.33293875e-04
1.40000000e+00	3.91038468e-03	1.38554992e-04
1.40500000e+00	3.83344399e-03	1.46170543e-04
1.41000000e+00	3.81664089e-03	1.52415604e-04
1.41500000e+00	3.78633366e-03	1.56702929e-04
1.42000000e+00	3.76938145e-03	1.62183495e-04
1.42500000e+00	3.74757081e-03	1.66019173e-04
1.43000000e+00	3.72037462e-03	1.71059993e-04
1.43500000e+00	3.68037754e-03	1.74484943e-04
1.44000000e+00	3.68035118e-03	1.81258117e-04
1.44500000e+00	3.59889777e-03	1.81846651e-04
1.45000000e+00	3.69184675e-03	1.80201542e-04
1.45500000e+00	3.72568611e-03	1.63540532e-04
1.46000000e+00	3.68168173e-03	1.57761295e-04
1.46500000e+00	3.68057730e-03	1.54903133e-04
1.47000000e+00	3.65794869e-03	1.53709473e-04
1.47500000e+00	3.67128763e-03	1.49751451e-04
1.48000000e+00	3.64619783e-03	1.47197377e-04
1.48500000e+00	3.62163244e-03	1.46360890e-04
1.49000000e+00	3.62163531e-03	1.46567520e-04
1.49500000e+00	3.60758076e-03	1.42863372e-04
1.50000000e+00	3.65848438e-03	1.44302947e-04
1.50500000e+00	3.60102088e-03	1.42832380e-04
1.51000000e+00	3.60273361e-03	1.43295480e-04
1.51500000e+00	3.60792393e-03	1.41108524e-04
1.52000000e+00	3.59446811e-03	1.40172052e-04
1.52500000e+00	3.61408667e-03	1.40767888e-04
1.53000000e+00	3.59973706e-03	1.41026823e-04
1.53500000e+00	3.57443577e-03	1.36100893e-04
1.54000000e+00	3.59590497e-03	1.36692401e-04
1.54500000e+00	3.57479983e-03	1.35544185e-04
1.55000000e+00	3.56322328e-03	1.34774482e-04
1.55500000e+00	3.54947993e-03	1.31216803e-04
1.56000000e+00	3.52408821e-03	1.30545631e-04
1.56500000e+00	3.49058438e-03	1.28642875e-04
1.57000000e+00	3.47671599e-03	1.27215231e-04
1.57500000e+00	3.47276421e-03	1.24728524e-04
1.58000000e+00	3.45617582e-03	1.23930808e-04
1.58500000e+00	3.44705774e-03	1.23597862e-04
1.59000000e+00	3.43095396e-03	1.23083881e-04
1.59500000e+00	3.45292593e-03	1.21563208e-04
1.60000000e+00	3.41924979e-03	1.20252541e-04
1.60500000e+00	3.42386110e-03	1.20483382e-04
1.61000000e+00	3.43163754e-03	1.20201220e-04
1.61500000e+00	3.43172879e-03	1.19182156e-04
1.62000000e+00	3.43273980e-03	1.19721159e-04
1.62500000e+00	3.40998260e-03	1.20238460e-04
1.63000000e+00	3.43227195e-03	1.19726771e-04
1.63500000e+00	3.41490801e-03	1.19115894e-04
1.64000000e+00	3.41116764e-03	1.19105008e-04
1.64500000e+00	3.43317743e-03	1.21174556e-04
1.65000000e+00	3.39980039e-03	1.18686141e-04
1.65500000e+00	3.41261608e-03	1.19008414e-04
1.66000000e+00	3.41046270e-03	1.19013925e-04
1.66500000e+00	3.39197414e-03	1.20411080e-04
1.67000000e+00	3.43527478e-03	1.19442483e-04
1.67500000e+00	3.39587673e-03	1.18343834e-04
1.68000000e+00	3.38963264e-03	1.18521111e-04
1.68500000e+00	3.40546139e-03	1.20977196e-04
1.69000000e+00	3.36923498e-03	1.17471369e-04
1.69500000e+00	3.36113151e-03	1.16922641e-04
1.70000000e+00	3.38718777e-03	1.19159152e-04
1.70500000e+00	3.33960701e-03	1.18033178e-04
1.71000000e+00	3.32956029e-03	1.16212483e-04
1.71500000e+00	3.33767488e-03	1.16324920e-04
1.72000000e+00	3.30423969e-03	1.16119222e-04
1.72500000e+00	3.32339421e-03	1.17532027e-04
1.73000000e+00	3.30098073e-03	1.15140909e-04
1.73500000e+00	3.28170334e-03	1.14805800e-04
1.74000000e+00	3.27930419e-03	1.15023591e-04
1.74500000e+00	3.24276112e-03	1.15090395e-04
1.75000000e+00	3.22277483e-03	1.12154060e-04
1.75500000e+00	3.22340377e-03	1.12879572e-04
1.76000000e+00	3.22579450e-03	1.12931182e-04
1.76500000e+00	3.19734113e-03	1.13479131e-04
1.77000000e+00	3.17424410e-03	1.10677311e-04
1.77500000e+00	3.17856351e-03	1.11167460e-04
1.78000000e+00	3.16614618e-03	1.11106962e-04
1.78500000e+00	3.13571806e-03	1.11153364e-04
1.79000000e+00	3.14565060e-03	1.09667541e-04
1.79500000e+00	3.10886556e-03	1.08680730e-04
1.80000000e+00	3.10673333e-03	1.09270464e-04
1.80500000e+00	3.08080210e-03	1.09050923e-04
1.81000000e+00	3.08897522e-03	1.07721510e-04
1.81500000e+00	3.07599873e-03	1.07397028e-04
1.82000000e+00	3.07371624e-03	1.08014698e-04
1.82500000e+00	3.05497396e-03	1.08052141e-04
1.83000000e+00	3.02682364e-03	1.05638444e-04
1.83500000e+00	3.01989964e-03	1.05611604e-04
1.84000000e+00	3.02747482e-03	1.06447014e-04
1.84500000e+00	2.99160344e-03	1.05797841e-04
1.85000000e+00	2.99778338e-03	1.04748679e-04
1.85500000e+00	3.00898339e-03	1.05195857e-04
1.86000000e+00	2.98220713e-03	1.04953827e-04
1.86500000e+00	2.97134993e-03	1.04883419e-04
1.87000000e+00	2.95079078e-03	1.03019834e-04
1.87500000e+00	2.96072693e-03	1.03719347e-04
1.88000000e+00	2.95108732e-03	1.03777354e-04
1.88500000e+00	2.92729094e-03	1.03564941e-04
1.89000000e+00	2.92348538e-03	1.02043070e-04
1.89500000e+00	2.90825363e-03	1.02072677e-04
1.90000000e+00	2.89209253e-03	1.01794815e-04
1.90500000e+00	2.90548444e-03	1.02310679e-04
1.91000000e+00	2.88360925e-03	1.00904955e-04
1.91500000e+00	2.86667038e-03	1.00332618e-04
1.92000000e+00	2.86450742e-03	1.00842668e-04
1.92500000e+00	2.84730681e-03	1.00401904e-04
1.93000000e+00	2.85881684e-03	9.98658958e-05
1.93500000e+00	2.84716678e-03	9.96659918e-05
1.94000000e+00	2.84269809e-03	1.00304691e-04
1.94500000e+00	2.82115370e-03	9.93307810e-05
1.95000000e+00	2.82947251e-03	9.86915872e-05
1.95500000e+00	2.77703002e-03	9.73722142e-05
1.96000000e+00	2.79103286e-03	9.84085159e-05
1.96500000e+00	2.79164304e-03	9.84454001e-05
1.97000000e+00	2.75906972e-03	9.61441629e-05
1.97500000e+00	2.76443248e-03	9.69893647e-05
1.98000000e+00	2.75545210e-03	9.71011892e-05
1.98500000e+00	2.75159814e-03	9.71323865e-05
1.99000000e+00	2.72570258e-03	9.49669678e-05
1.99500000e+00	2.71366994e-03	9.50180832e-05
2.00000000e+00	2.73338003e-03	9.63245036e-05
2.00500000e+00	2.73164930e-03	9.65087761e-05
2.01000000e+00	2.70285917e-03	1.04732840e-04
2.01500000e+00	2.69918840e-03	1.11189900e-04
2.02000000e+00	2.67588316e-03	1.17502956e-04
2.02500000e+00	2.65123926e-03	1.20930512e-04
2.03000000e+00	2.63522084e-03	1.27347151e-04
2.03500000e+00	2.62851041e-03	1.32655548e-04
2.04000000e+00	2.62723677e-03	1.38499741e-04
2.04500000e+00	2.56777368e-03	1.42575586e-04
2.05000000e+00	2.56066195e-03	1.49212229e-04
2.05500000e+00	2.61650820e-03	1.49178810e-04
2.06000000e+00	2.60067220e-03	1.29251687e-04
2.06500000e+00	2.59355884e-03	1.23111008e-04
2.07000000e+00	2.59988213e-03	1.16865860e-04
2.07500000e+00	2.56573012e-03	1.12779362e-04
2.08000000e+00	2.57890752e-03	1.13040228e-04
2.08500000e+00	2.60560144e-03	1.13207621e-04
2.09000000e+00	2.57490825e-03	1.08576552e-04
2.09500000e+00	2.58555416e-03	1.07842438e-04
2.10000000e+00	2.59734254e-03	1.07599928e-04
2.10500000e+00	2.54328622e-03	1.05046889e-04
2.11000000e+00	2.53583440e-03	1.00909711e-04
2.11500000e+00	2.54142513e-03	1.00096290e-04
2.12000000e+00	2.51616481e-03	9.85686973e-05
2.12500000e+00	2.48786242e-03	9.71609102e-05
2.13000000e+00	2.46917604e-03	9.25660709e-05
2.13500000e+00	2.45216242e-03	9.08985983e-05
2.14000000e+00	2.43233503e-03	8.93127267e-05
2.14500000e+00	2.42582160e-03	8.92517375e-05
2.15000000e+00	2.40226911e-03	8.54028307e-05
2.15500000e+00	2.42797211e-03	8.65432152e-05
2.16000000e+00	2.39335981e-03	8.49262666e-05
2.16500000e+00	2.41017201e-03	8.61353944e-05
2.17000000e+00	2.38569481e-03	8.30888940e-05
2.17500000e+00	2.37841426e-03	8.30598753e-05
2.18000000e+00	2.35681898e-03	8.27046415e-05
2.18500000e+00	2.35168723e-03	8.27362631e-05
2.19000000e+00	2.34904432e-03	8.25393719e-05
2.19500000e+00	2.33599623e-03	8.15571055e-05
2.20000000e+00	2.31667625e-03	8.10857947e-05
2.20500000e+00	2.31901491e-03	8.14038158e-05
2.21000000e+00	2.29701213e-03	8.11255714e-05
2.21500000e+00	2.28688841e-03	7.98342328e-05
2.22000000e+00	2.27455744e-03	7.93648185e-05
2.22500000e+00	2.29862101e-03	8.07900722e-05
2.23000000e+00	2.23865101e-03	7.91464482e-05
2.23500000e+00	2.25757556e-03	7.87373203e-05
2.24000000e+00	2.21982748e-03	7.74809495e-05
2.24500000e+00	2.21769072e-03	7.79147663e-05
2.25000000e+00	2.19029505e-03	7.76015933e-05
2.25500000e+00	2.19296875e-03	7.62870283e-05
2.26000000e+00	2.20852755e-03	7.70979632e-05
2.26500000e+00	2.19088698e-03	7.67941083e-05
2.27000000e+00	2.15282470e-03	7.66358777e-05
2.27500000e+00	2.15148699e-03	7.50567533e-05
2.28000000e+00	2.14022793e-03	7.46470326e-05
2.28500000e+00	2.12414887e-03	7.45514106e-05
2.29000000e+00	2.10518169e-03	7.43302830e-05
2.29500000e+00	2.09912079e-03	7.38326365e-05
2.30000000e+00	2.09225612e-03	7.29114398e-05
2.30500000e+00	2.08335608e-03	7.27974714e-05
2.31000000e+00	2.04551558e-03	7.18784761e-05
2.31500000e+00	2.03059125e-03	7.19543844e-05
2.32000000e+00	2.04437703e-03	7.08994693e-05
2.32500000e+00	2.02684501e-03	7.09161170e-05
2.33000000e+00	2.00781519e-03	7.03464531e-05
2.33500000e+00	1.99190574e-03	7.05819265e-05
2.34000000e+00	1.98755201e-03	6.92551560e-05
2.34500000e+00	1.96030804e-03	6.83176861e-05
2.35000000e+00	1.94089105e-03	6.79085018e-05
2.35500000e+00	1.94235463e-03	6.88197152e-05
2.36000000e+00	1.93700083e-03	6.77115215e-05
2.36500000e+00	1.92529617e-03	6.72728409e-05
2.37000000e+00	1.92249487e-03	6.71486998e-05
2.37500000e+00	1.89933900e-03	6.69576876e-05
2.38000000e+00	1.87701936e-03	6.64884479e-05
2.38500000e+00	1.86864143e-03	6.52504708e-05
2.39000000e+00	1.84477794e-03	6.45760592e-05
2.39500000e+00	1.84666104e-03	6.50333810e-05
2.40000000e+00	1.83762116e-03	6.56126673e-05
2.40500000e+00	1.83716420e-03	6.43481369e-05
2.41000000e+00	1.81414481e-03	6.37639474e-05
2.41500000e+00	1.81060135e-03	6.35795507e-05
2.42000000e+00	1.78431747e-03	6.35997067e-05
2.42500000e+00	1.77471021e-03	6.32146822e-05
2.43000000e+00	1.78164538e-03	6.28011844e-05
2.43500000e+00	1.75135322e-03	6.19238863e-05
2.44000000e+00	1.74433559e-03	6.17891116e-05
2.44500000e+00	1.74869568e-03	6.27528582e-05
2.45000000e+00	1.73058550e-03	6.09984993e-05
2.45500000e+00	1.73558988e-03	6.13767293e-05
2.46000000e+00	1.70362404e-03	6.05174948e-05
2.46500000e+00	1.68770054e-03	6.07090108e-05
2.47000000e+00	1.68050350e-03	5.98643181e-05
2.47500000e+00	1.67338284e-03	5.92540896e-05
2.48000000e+00	1.67433242e-03	5.97827859e-05
2.48500000e+00	1.65322171e-03	5.90505530e-05
2.49000000e+00	1.63787860e-03	5.93890475e-05
2.49500000e+00	1.63260205e-03	5.80614934e-05
2.50000000e+00	1.60978613e-03	5.73627373e-05
2.50500000e+00	1.60903207e-03	5.76984714e-05
2.51000000e+00	1.61869966e-03	5.83858654e-05
2.51500000e+00	1.60175889e-03	5.78803084e-05
2.52000000e+00	1.58945487e-03	5.69815574e-05
2.52500000e+00	1.58581121e-03	5.71449111e-05
2.53000000e+00	1.57757593e-03	5.73164710e-05
2.53500000e+00	1.57157289e-03	5.78458947e-05
2.54000000e+00	1.55708737e-03	5.63441897e-05
2.54500000e+00	1.56077984e-03	5.66866071e-05
2.55000000e+00	1.55156304e-03	5.66280660e-05
2.55500000e+00	1.54141195e-03	5.66663018e-05
2.56000000e+00	1.53145316e-03	5.66183927e-05
2.56500000e+00	1.51846578e-03	5.57211215e-05
2.57000000e+00	1.51867949e-03	5.59174485e-05
2.57500000e+00	1.52135923e-03	5.62539441e-05
2.58000000e+00	1.49233006e-03	5.59146789e-05
2.58500000e+00	1.50234457e-03	5.59318536e-05
2.59000000e+00	1.49129450e-03	5.52372354e-05
2.59500000e+00	1.46966838e-03	5.46911399e-05
2.60000000e+00	1.48026229e-03	5.55431729e-05
2.60500000e+00	1.48028789e-03	5.68088381e-05
2.61000000e+00	1.45631643e-03	6.37190574e-05
2.61500000e+00	1.42784766e-03	6.92061232e-05
2.62000000e+00	1.39793597e-03	7.47394200e-05
2.62500000e+00	1.38382025e-03	7.98942609e-05
2.63000000e+00	1.41308402e-03	8.99550836e-05
2.63500000e+00	1.46258844e-03	1.02643171e-04
2.64000000e+00	1.45813595e-03	1.13161004e-04
2.64500000e+00	1.48110179e-03	1.22355964e-04
2.65000000e+00	1.45616390e-03	1.27749918e-04
2.65500000e+00	1.43775527e-03	1.35306198e-04
2.66000000e+00	1.44406090e-03	1.45029359e-04
2.66500000e+00	1.37733217e-03	1.56686297e-04
2.67000000e+00	1.33732504e-03	1.65444420e-04
2.67500000e+00	1.38939876e-03	1.99085617e-04
2.68000000e+00	1.18468207e-03	1.98533249e-04
2.68500000e+00	1.11549233e-03	2.50425909e-04
2.69000000e+00	1.24788501e-03	4.44672337e-04
2.69500000e+00	0.00000000e+00	0.00000000e+00
2.70000000e+00	0.00000000e+00	0.00000000e+00
