% Filename : WEC3_00043_00005.h5
% Date & Time : 30-Oct-2025 18:02:22
% X-ray Energy (keV) : 13.30001
% Exposure Time (s) : 0.500
% Photodiode Value : 141575.000
% I0 of Sample : 0
% I0 of Standard : 1
% 
% q(A^-1)   I(q)    I(q)_SE
8.40000000e-01	0.00000000e+00	0.00000000e+00
8.45000000e-01	2.97991655e-03	5.22208635e-04
8.50000000e-01	2.82999136e-03	2.62517985e-04
8.55000000e-01	2.69512921e-03	2.20290796e-04
8.60000000e-01	2.72710902e-03	1.93121765e-04
8.65000000e-01	2.74174054e-03	1.78886955e-04
8.70000000e-01	2.71780294e-03	1.68819420e-04
8.75000000e-01	2.71424654e-03	1.62311325e-04
8.80000000e-01	2.78118967e-03	1.60736919e-04
8.85000000e-01	2.77709010e-03	1.51774809e-04
8.90000000e-01	2.75875564e-03	1.47520346e-04
8.95000000e-01	2.78368961e-03	1.44761770e-04
9.00000000e-01	2.81978481e-03	1.45216193e-04
9.05000000e-01	2.83406988e-03	1.39564501e-04
9.10000000e-01	2.75491309e-03	1.33035027e-04
9.15000000e-01	2.80837282e-03	1.33583883e-04
9.20000000e-01	2.84883286e-03	1.35341130e-04
9.25000000e-01	2.79422293e-03	1.26981466e-04
9.30000000e-01	2.82374679e-03	1.27009588e-04
9.35000000e-01	2.81982056e-03	1.24417334e-04
9.40000000e-01	2.83182557e-03	1.25293891e-04
9.45000000e-01	2.83125361e-03	1.22112053e-04
9.50000000e-01	2.83175401e-03	1.20353491e-04
9.55000000e-01	2.85849452e-03	1.19361086e-04
9.60000000e-01	2.82661759e-03	1.18184065e-04
9.65000000e-01	2.85308114e-03	1.17245774e-04
9.70000000e-01	2.87802123e-03	1.16381629e-04
9.75000000e-01	2.86548612e-03	1.14495209e-04
9.80000000e-01	2.86529536e-03	1.13642359e-04
9.85000000e-01	2.85029197e-03	1.13175146e-04
9.90000000e-01	2.89283950e-03	1.11367136e-04
9.95000000e-01	2.88242889e-03	1.10439638e-04
1.00000000e+00	2.87074599e-03	1.09425730e-04
1.00500000e+00	2.87103876e-03	1.09516307e-04
1.01000000e+00	2.87945878e-03	1.07499319e-04
1.01500000e+00	2.89115518e-03	1.06820467e-04
1.02000000e+00	2.89523443e-03	1.06989514e-04
1.02500000e+00	2.87581830e-03	1.05060355e-04
1.03000000e+00	2.88637237e-03	1.04916096e-04
1.03500000e+00	2.89296974e-03	1.03640502e-04
1.04000000e+00	2.86449400e-03	1.02057069e-04
1.04500000e+00	2.85786124e-03	1.01830969e-04
1.05000000e+00	2.84634899e-03	1.00946181e-04
1.05500000e+00	2.84795585e-03	9.92988632e-05
1.06000000e+00	2.83859285e-03	9.87777484e-05
1.06500000e+00	2.87003725e-03	9.99837423e-05
1.07000000e+00	2.85146391e-03	9.91193202e-05
1.07500000e+00	2.86785772e-03	9.89300964e-05
1.08000000e+00	2.88352979e-03	9.88883067e-05
1.08500000e+00	2.87974056e-03	9.89216074e-05
1.09000000e+00	2.89484293e-03	9.99786948e-05
1.09500000e+00	2.89806859e-03	9.80255645e-05
1.10000000e+00	2.90685119e-03	9.90400329e-05
1.10500000e+00	2.92829182e-03	1.00090038e-04
1.11000000e+00	2.91200525e-03	9.96367364e-05
1.11500000e+00	2.92025914e-03	9.91424632e-05
1.12000000e+00	2.94416737e-03	1.00369994e-04
1.12500000e+00	2.94235368e-03	1.00072372e-04
1.13000000e+00	2.94872797e-03	1.01550098e-04
1.13500000e+00	2.95786601e-03	1.00577027e-04
1.14000000e+00	2.98959223e-03	1.01522732e-04
1.14500000e+00	3.00492283e-03	1.02894989e-04
1.15000000e+00	2.99440726e-03	1.02965253e-04
1.15500000e+00	3.00864913e-03	1.02363170e-04
1.16000000e+00	2.98050949e-03	1.01755765e-04
1.16500000e+00	2.99914465e-03	1.02253019e-04
1.17000000e+00	3.03692338e-03	1.04865904e-04
1.17500000e+00	3.05472592e-03	1.03927724e-04
1.18000000e+00	3.03568817e-03	1.03655283e-04
1.18500000e+00	3.04699070e-03	1.04053103e-04
1.19000000e+00	3.06671257e-03	1.05782275e-04
1.19500000e+00	3.07046845e-03	1.04630775e-04
1.20000000e+00	3.07725127e-03	1.05408656e-04
1.20500000e+00	3.06781078e-03	1.04923138e-04
1.21000000e+00	3.04767039e-03	1.05614586e-04
1.21500000e+00	3.08512736e-03	1.05185824e-04
1.22000000e+00	3.10084107e-03	1.05886606e-04
1.22500000e+00	3.09136144e-03	1.06012823e-04
1.23000000e+00	3.09169616e-03	1.06766633e-04
1.23500000e+00	3.11586882e-03	1.06838317e-04
1.24000000e+00	3.10413310e-03	1.06064040e-04
1.24500000e+00	3.11870122e-03	1.07333888e-04
1.25000000e+00	3.11731286e-03	1.07827386e-04
1.25500000e+00	3.12469728e-03	1.06796202e-04
1.26000000e+00	3.14262440e-03	1.08140505e-04
1.26500000e+00	3.14086129e-03	1.07647671e-04
1.27000000e+00	3.11851249e-03	1.08429675e-04
1.27500000e+00	3.13557204e-03	1.07875652e-04
1.28000000e+00	3.16118960e-03	1.08152378e-04
1.28500000e+00	3.13591772e-03	1.07827927e-04
1.29000000e+00	3.16071772e-03	1.09653020e-04
1.29500000e+00	3.14614759e-03	1.07974277e-04
1.30000000e+00	3.15681956e-03	1.08172971e-04
1.30500000e+00	3.16499535e-03	1.09038417e-04
1.31000000e+00	3.17884386e-03	1.10783297e-04
1.31500000e+00	3.16714952e-03	1.08934670e-04
1.32000000e+00	3.18286293e-03	1.09358684e-04
1.32500000e+00	3.17339102e-03	1.09418611e-04
1.33000000e+00	3.16059211e-03	1.10310514e-04
1.33500000e+00	3.17819473e-03	1.09215511e-04
1.34000000e+00	3.18150894e-03	1.09516515e-04
1.34500000e+00	3.17696691e-03	1.09830254e-04
1.35000000e+00	3.20618760e-03	1.11841515e-04
1.35500000e+00	3.17130556e-03	1.09108120e-04
1.36000000e+00	3.19499720e-03	1.09755108e-04
1.36500000e+00	3.20630161e-03	1.10645537e-04
1.37000000e+00	3.19778907e-03	1.11904681e-04
1.37500000e+00	3.17518296e-03	1.09300048e-04
1.38000000e+00	3.19058767e-03	1.10186034e-04
1.38500000e+00	3.21061952e-03	1.11416743e-04
1.39000000e+00	3.21116099e-03	1.12155815e-04
1.39500000e+00	3.18400537e-03	1.09597814e-04
1.40000000e+00	3.20801014e-03	1.13791123e-04
1.40500000e+00	3.18664026e-03	1.21709048e-04
1.41000000e+00	3.17746983e-03	1.26992452e-04
1.41500000e+00	3.13003460e-03	1.29696281e-04
1.42000000e+00	3.12879262e-03	1.34894311e-04
1.42500000e+00	3.12157765e-03	1.38566305e-04
1.43000000e+00	3.09154875e-03	1.42307187e-04
1.43500000e+00	3.10351564e-03	1.47291217e-04
1.44000000e+00	3.07434988e-03	1.51782094e-04
1.44500000e+00	3.06810172e-03	1.55286321e-04
1.45000000e+00	3.11165916e-03	1.52283731e-04
1.45500000e+00	3.16845861e-03	1.39202483e-04
1.46000000e+00	3.16116234e-03	1.35670975e-04
1.46500000e+00	3.12904016e-03	1.31914045e-04
1.47000000e+00	3.08890601e-03	1.30058155e-04
1.47500000e+00	3.12805756e-03	1.27676789e-04
1.48000000e+00	3.13243627e-03	1.26574529e-04
1.48500000e+00	3.13266661e-03	1.26687740e-04
1.49000000e+00	3.11364820e-03	1.26159348e-04
1.49500000e+00	3.09406447e-03	1.22678985e-04
1.50000000e+00	3.12430538e-03	1.23461222e-04
1.50500000e+00	3.10032124e-03	1.23063463e-04
1.51000000e+00	3.13020988e-03	1.24590324e-04
1.51500000e+00	3.15191612e-03	1.23427947e-04
1.52000000e+00	3.14044909e-03	1.22564682e-04
1.52500000e+00	3.16613436e-03	1.23405113e-04
1.53000000e+00	3.11927578e-03	1.22291139e-04
1.53500000e+00	3.10971134e-03	1.18451343e-04
1.54000000e+00	3.12062204e-03	1.18667092e-04
1.54500000e+00	3.09392953e-03	1.17294068e-04
1.55000000e+00	3.10407396e-03	1.17523386e-04
1.55500000e+00	3.06209779e-03	1.13312037e-04
1.56000000e+00	3.05957597e-03	1.13520052e-04
1.56500000e+00	3.04066864e-03	1.12140903e-04
1.57000000e+00	3.01904416e-03	1.10577951e-04
1.57500000e+00	3.00503843e-03	1.07999986e-04
1.58000000e+00	3.01522808e-03	1.08146215e-04
1.58500000e+00	2.99375593e-03	1.07454783e-04
1.59000000e+00	2.97508138e-03	1.06870646e-04
1.59500000e+00	2.98069393e-03	1.05015784e-04
1.60000000e+00	2.97109490e-03	1.04618214e-04
1.60500000e+00	2.97921305e-03	1.04911544e-04
1.61000000e+00	2.96875504e-03	1.04104791e-04
1.61500000e+00	2.96613849e-03	1.03067212e-04
1.62000000e+00	2.97155473e-03	1.03688638e-04
1.62500000e+00	2.93634584e-03	1.03696957e-04
1.63000000e+00	2.97285092e-03	1.03833000e-04
1.63500000e+00	2.94260096e-03	1.02823267e-04
1.64000000e+00	2.92049304e-03	1.02067492e-04
1.64500000e+00	2.92472476e-03	1.03382300e-04
1.65000000e+00	2.92944519e-03	1.02359761e-04
1.65500000e+00	2.90708099e-03	1.01502256e-04
1.66000000e+00	2.91836700e-03	1.01976830e-04
1.66500000e+00	2.88684994e-03	1.02613057e-04
1.67000000e+00	2.89608595e-03	1.00756854e-04
1.67500000e+00	2.90511039e-03	1.01349261e-04
1.68000000e+00	2.89999382e-03	1.01489288e-04
1.68500000e+00	2.87095821e-03	1.02141980e-04
1.69000000e+00	2.87413773e-03	1.00273278e-04
1.69500000e+00	2.87161419e-03	1.00010594e-04
1.70000000e+00	2.85330607e-03	1.00475776e-04
1.70500000e+00	2.86751982e-03	1.01520852e-04
1.71000000e+00	2.85867504e-03	9.98751084e-05
1.71500000e+00	2.83197697e-03	9.88306947e-05
1.72000000e+00	2.82571702e-03	9.93945516e-05
1.72500000e+00	2.83081297e-03	1.00222288e-04
1.73000000e+00	2.82539439e-03	9.87132016e-05
1.73500000e+00	2.81161532e-03	9.85203457e-05
1.74000000e+00	2.79157573e-03	9.79264762e-05
1.74500000e+00	2.79099793e-03	9.91618317e-05
1.75000000e+00	2.78492731e-03	9.70644628e-05
1.75500000e+00	2.77513657e-03	9.72906091e-05
1.76000000e+00	2.76252140e-03	9.68727078e-05
1.76500000e+00	2.76953112e-03	9.84053764e-05
1.77000000e+00	2.74421395e-03	9.58105549e-05
1.77500000e+00	2.74140283e-03	9.60169387e-05
1.78000000e+00	2.74548065e-03	9.64802849e-05
1.78500000e+00	2.72439813e-03	9.67400831e-05
1.79000000e+00	2.71286944e-03	9.47138980e-05
1.79500000e+00	2.71326026e-03	9.48943974e-05
1.80000000e+00	2.68311954e-03	9.44080257e-05
1.80500000e+00	2.68134042e-03	9.49558940e-05
1.81000000e+00	2.69104199e-03	9.39238347e-05
1.81500000e+00	2.67128842e-03	9.33072933e-05
1.82000000e+00	2.67403706e-03	9.40870931e-05
1.82500000e+00	2.64395533e-03	9.35256507e-05
1.83000000e+00	2.63990539e-03	9.22843832e-05
1.83500000e+00	2.65172739e-03	9.27912128e-05
1.84000000e+00	2.65197616e-03	9.33629651e-05
1.84500000e+00	2.65113865e-03	9.37726134e-05
1.85000000e+00	2.63778357e-03	9.23261500e-05
1.85500000e+00	2.61439141e-03	9.14745013e-05
1.86000000e+00	2.61526362e-03	9.21572595e-05
1.86500000e+00	2.60970189e-03	9.21682101e-05
1.87000000e+00	2.60275482e-03	9.09304377e-05
1.87500000e+00	2.59083438e-03	9.08178200e-05
1.88000000e+00	2.61331809e-03	9.19996190e-05
1.88500000e+00	2.59174963e-03	9.18370341e-05
1.89000000e+00	2.57289086e-03	8.99381888e-05
1.89500000e+00	2.56756294e-03	9.02699238e-05
1.90000000e+00	2.55958568e-03	9.01162796e-05
1.90500000e+00	2.54388230e-03	8.96417632e-05
1.91000000e+00	2.55339887e-03	8.94679838e-05
1.91500000e+00	2.54173041e-03	8.90621630e-05
1.92000000e+00	2.51509216e-03	8.86381258e-05
1.92500000e+00	2.52856265e-03	8.91855923e-05
1.93000000e+00	2.51838450e-03	8.80152499e-05
1.93500000e+00	2.51154992e-03	8.80753501e-05
1.94000000e+00	2.51360051e-03	8.88082530e-05
1.94500000e+00	2.48894934e-03	8.77215774e-05
1.95000000e+00	2.48780178e-03	8.68625100e-05
1.95500000e+00	2.49645402e-03	8.75020168e-05
1.96000000e+00	2.47304500e-03	8.72352562e-05
1.96500000e+00	2.46769536e-03	8.71533536e-05
1.97000000e+00	2.43638490e-03	8.49756362e-05
1.97500000e+00	2.45543031e-03	8.61851471e-05
1.98000000e+00	2.43773570e-03	8.60005362e-05
1.98500000e+00	2.41602995e-03	8.53916478e-05
1.99000000e+00	2.41882097e-03	8.43781722e-05
1.99500000e+00	2.42608130e-03	8.49874999e-05
2.00000000e+00	2.40320056e-03	8.47499181e-05
2.00500000e+00	2.41277046e-03	8.53775688e-05
2.01000000e+00	2.39603802e-03	9.30556056e-05
2.01500000e+00	2.39279054e-03	9.86285780e-05
2.02000000e+00	2.37045469e-03	1.04200622e-04
2.02500000e+00	2.33748276e-03	1.06745353e-04
2.03000000e+00	2.34605821e-03	1.13546763e-04
2.03500000e+00	2.28187633e-03	1.15281813e-04
2.04000000e+00	2.31211141e-03	1.22222471e-04
2.04500000e+00	2.26994451e-03	1.26048001e-04
2.05000000e+00	2.25126638e-03	1.31241460e-04
2.05500000e+00	2.31987009e-03	1.32666617e-04
2.06000000e+00	2.32188221e-03	1.15525664e-04
2.06500000e+00	2.29604969e-03	1.09042321e-04
2.07000000e+00	2.29545416e-03	1.03295317e-04
2.07500000e+00	2.31921035e-03	1.01964782e-04
2.08000000e+00	2.30890259e-03	1.01366818e-04
2.08500000e+00	2.28540019e-03	9.94428468e-05
2.09000000e+00	2.26478948e-03	9.56311050e-05
2.09500000e+00	2.26180868e-03	9.44486676e-05
2.10000000e+00	2.28301418e-03	9.47208997e-05
2.10500000e+00	2.26321855e-03	9.35477098e-05
2.11000000e+00	2.24023250e-03	8.91784752e-05
2.11500000e+00	2.22806728e-03	8.79292753e-05
2.12000000e+00	2.21843011e-03	8.69730281e-05
2.12500000e+00	2.20926552e-03	8.65106708e-05
2.13000000e+00	2.19605495e-03	8.23325271e-05
2.13500000e+00	2.16583445e-03	8.02853455e-05
2.14000000e+00	2.15829622e-03	7.93099376e-05
2.14500000e+00	2.13475890e-03	7.85923052e-05
2.15000000e+00	2.12244036e-03	7.56086071e-05
2.15500000e+00	2.12341230e-03	7.57848355e-05
2.16000000e+00	2.10021379e-03	7.46185006e-05
2.16500000e+00	2.10128421e-03	7.51503944e-05
2.17000000e+00	2.08540914e-03	7.27960075e-05
2.17500000e+00	2.06751006e-03	7.23574600e-05
2.18000000e+00	2.08055728e-03	7.30538500e-05
2.18500000e+00	2.05978888e-03	7.26992580e-05
2.19000000e+00	2.04231900e-03	7.18282653e-05
2.19500000e+00	2.06322567e-03	7.21429720e-05
2.20000000e+00	2.01782696e-03	7.07879939e-05
2.20500000e+00	2.01936839e-03	7.10556651e-05
2.21000000e+00	1.98760618e-03	7.02489587e-05
2.21500000e+00	2.00680300e-03	7.01831068e-05
2.22000000e+00	1.99365837e-03	6.96357100e-05
2.22500000e+00	1.95962006e-03	6.89998698e-05
2.23000000e+00	1.94949531e-03	6.90929663e-05
2.23500000e+00	1.93716766e-03	6.77407540e-05
2.24000000e+00	1.94210664e-03	6.78548460e-05
2.24500000e+00	1.94583143e-03	6.84948861e-05
2.25000000e+00	1.90538643e-03	6.76445861e-05
2.25500000e+00	1.91155123e-03	6.66453286e-05
2.26000000e+00	1.88323572e-03	6.59496034e-05
2.26500000e+00	1.87373625e-03	6.57716886e-05
2.27000000e+00	1.87689300e-03	6.68400215e-05
2.27500000e+00	1.86419840e-03	6.50353657e-05
2.28000000e+00	1.87736058e-03	6.55722341e-05
2.28500000e+00	1.83911393e-03	6.46195115e-05
2.29000000e+00	1.83454690e-03	6.48138559e-05
2.29500000e+00	1.82115743e-03	6.41649955e-05
2.30000000e+00	1.80456682e-03	6.29892855e-05
2.30500000e+00	1.78388455e-03	6.24586621e-05
2.31000000e+00	1.77037065e-03	6.23109619e-05
2.31500000e+00	1.78364323e-03	6.32631564e-05
2.32000000e+00	1.75277500e-03	6.09092220e-05
2.32500000e+00	1.75865076e-03	6.16795684e-05
2.33000000e+00	1.74915318e-03	6.14404846e-05
2.33500000e+00	1.71269090e-03	6.07461579e-05
2.34000000e+00	1.72226702e-03	6.00405978e-05
2.34500000e+00	1.68510178e-03	5.87960065e-05
2.35000000e+00	1.67940811e-03	5.88228248e-05
2.35500000e+00	1.65994793e-03	5.89368613e-05
2.36000000e+00	1.66783656e-03	5.83972835e-05
2.36500000e+00	1.65650301e-03	5.79049999e-05
2.37000000e+00	1.65460839e-03	5.79654952e-05
2.37500000e+00	1.66361538e-03	5.87496630e-05
2.38000000e+00	1.62924769e-03	5.78025327e-05
2.38500000e+00	1.61160449e-03	5.63824783e-05
2.39000000e+00	1.61155370e-03	5.65364779e-05
2.39500000e+00	1.59638251e-03	5.62754129e-05
2.40000000e+00	1.58639664e-03	5.67431519e-05
2.40500000e+00	1.58024140e-03	5.54254284e-05
2.41000000e+00	1.55674685e-03	5.47299150e-05
2.41500000e+00	1.54510356e-03	5.43733262e-05
2.42000000e+00	1.55718701e-03	5.55778299e-05
2.42500000e+00	1.54490965e-03	5.50033622e-05
2.43000000e+00	1.53579302e-03	5.41583707e-05
2.43500000e+00	1.52320102e-03	5.39432257e-05
2.44000000e+00	1.52312481e-03	5.39938705e-05
2.44500000e+00	1.51167099e-03	5.43136692e-05
2.45000000e+00	1.49907418e-03	5.29026029e-05
2.45500000e+00	1.50953941e-03	5.34670731e-05
2.46000000e+00	1.47267413e-03	5.23068728e-05
2.46500000e+00	1.46670345e-03	5.28271786e-05
2.47000000e+00	1.45916962e-03	5.19725225e-05
2.47500000e+00	1.45215980e-03	5.13925918e-05
2.48000000e+00	1.43177770e-03	5.12450327e-05
2.48500000e+00	1.43216589e-03	5.11110146e-05
2.49000000e+00	1.41609303e-03	5.13809942e-05
2.49500000e+00	1.41202206e-03	5.01712026e-05
2.50000000e+00	1.40477097e-03	4.99470730e-05
2.50500000e+00	1.40521675e-03	5.02682010e-05
2.51000000e+00	1.39163512e-03	5.02504358e-05
2.51500000e+00	1.38054087e-03	4.99446730e-05
2.52000000e+00	1.38199282e-03	4.94828175e-05
2.52500000e+00	1.37893872e-03	4.96346049e-05
2.53000000e+00	1.36528468e-03	4.95705379e-05
2.53500000e+00	1.35516984e-03	4.98210699e-05
2.54000000e+00	1.34801616e-03	4.87581026e-05
2.54500000e+00	1.34951166e-03	4.90018701e-05
2.55000000e+00	1.32976465e-03	4.85372670e-05
2.55500000e+00	1.31465933e-03	4.84185306e-05
2.56000000e+00	1.32537711e-03	4.90062678e-05
2.56500000e+00	1.31440645e-03	4.81790767e-05
2.57000000e+00	1.30750918e-03	4.81582336e-05
2.57500000e+00	1.29595376e-03	4.78571618e-05
2.58000000e+00	1.29423563e-03	4.85669614e-05
2.58500000e+00	1.28504052e-03	4.78913466e-05
2.59000000e+00	1.27508179e-03	4.73239284e-05
2.59500000e+00	1.25005810e-03	4.65377343e-05
2.60000000e+00	1.25046280e-03	4.69988848e-05
2.60500000e+00	1.27280714e-03	4.89237965e-05
2.61000000e+00	1.24722745e-03	5.45287310e-05
2.61500000e+00	1.23257935e-03	5.97008210e-05
2.62000000e+00	1.22614344e-03	6.52676258e-05
2.62500000e+00	1.23375413e-03	7.09324268e-05
2.63000000e+00	1.21252577e-03	7.69590127e-05
2.63500000e+00	1.25552179e-03	8.86962804e-05
2.64000000e+00	1.22401720e-03	9.51805563e-05
2.64500000e+00	1.23222030e-03	1.02191825e-04
2.65000000e+00	1.22674648e-03	1.07701304e-04
2.65500000e+00	1.22040721e-03	1.15607863e-04
2.66000000e+00	1.14676297e-03	1.15900722e-04
2.66500000e+00	1.15398653e-03	1.31588321e-04
2.67000000e+00	1.12872745e-03	1.38828093e-04
2.67500000e+00	1.04653135e-03	1.51384746e-04
2.68000000e+00	1.01809587e-03	1.69740312e-04
2.68500000e+00	1.07950676e-03	2.42720725e-04
2.69000000e+00	1.08636027e-03	3.87935792e-04
2.69500000e+00	0.00000000e+00	0.00000000e+00
2.70000000e+00	0.00000000e+00	0.00000000e+00
