% Filename : WEC6_00037_00009.h5
% Date & Time : 30-Oct-2025 17:40:27
% X-ray Energy (keV) : 13.30001
% Exposure Time (s) : 0.500
% Photodiode Value : 142108.000
% I0 of Sample : 0
% I0 of Standard : 1
% 
% q(A^-1)   I(q)    I(q)_SE
8.40000000e-01	0.00000000e+00	0.00000000e+00
8.45000000e-01	3.04913806e-03	5.32841843e-04
8.50000000e-01	2.89118954e-03	2.68059643e-04
8.55000000e-01	2.77881457e-03	2.27134288e-04
8.60000000e-01	2.79057423e-03	1.97372765e-04
8.65000000e-01	2.78293943e-03	1.81232342e-04
8.70000000e-01	2.78706324e-03	1.73117994e-04
8.75000000e-01	2.80061094e-03	1.67335860e-04
8.80000000e-01	2.83648129e-03	1.63844524e-04
8.85000000e-01	2.81015146e-03	1.53594464e-04
8.90000000e-01	2.82838943e-03	1.51188125e-04
8.95000000e-01	2.83572328e-03	1.47236396e-04
9.00000000e-01	2.81448988e-03	1.44984556e-04
9.05000000e-01	2.81801080e-03	1.38694589e-04
9.10000000e-01	2.83290522e-03	1.36812203e-04
9.15000000e-01	2.85499070e-03	1.35817600e-04
9.20000000e-01	2.84642944e-03	1.35139972e-04
9.25000000e-01	2.88800092e-03	1.31116170e-04
9.30000000e-01	2.88007096e-03	1.29481295e-04
9.35000000e-01	2.84905186e-03	1.25799259e-04
9.40000000e-01	2.91927809e-03	1.29176203e-04
9.45000000e-01	2.89485220e-03	1.24821483e-04
9.50000000e-01	2.90432966e-03	1.23500932e-04
9.55000000e-01	2.89938182e-03	1.21080934e-04
9.60000000e-01	2.88958728e-03	1.20707453e-04
9.65000000e-01	2.89555159e-03	1.18937917e-04
9.70000000e-01	2.91986372e-03	1.18038903e-04
9.75000000e-01	2.91288863e-03	1.16457453e-04
9.80000000e-01	2.91157073e-03	1.15463143e-04
9.85000000e-01	2.90717714e-03	1.15340115e-04
9.90000000e-01	2.93940492e-03	1.13125636e-04
9.95000000e-01	2.94396430e-03	1.12702257e-04
1.00000000e+00	2.93532732e-03	1.11775572e-04
1.00500000e+00	2.93225041e-03	1.11791375e-04
1.01000000e+00	2.92693431e-03	1.09175428e-04
1.01500000e+00	2.91328555e-03	1.07614936e-04
1.02000000e+00	2.91555683e-03	1.07697786e-04
1.02500000e+00	2.93292497e-03	1.06953298e-04
1.03000000e+00	2.90812913e-03	1.05805004e-04
1.03500000e+00	2.89377722e-03	1.03715989e-04
1.04000000e+00	2.92631877e-03	1.04330497e-04
1.04500000e+00	2.90949643e-03	1.03754977e-04
1.05000000e+00	2.89319802e-03	1.02452345e-04
1.05500000e+00	2.89361582e-03	1.00794685e-04
1.06000000e+00	2.89652135e-03	1.00719891e-04
1.06500000e+00	2.92942238e-03	1.01917029e-04
1.07000000e+00	2.90542635e-03	1.00973613e-04
1.07500000e+00	2.91738146e-03	1.00573175e-04
1.08000000e+00	2.92918169e-03	1.00448389e-04
1.08500000e+00	2.93006322e-03	1.00497760e-04
1.09000000e+00	2.93053874e-03	1.01144603e-04
1.09500000e+00	2.95570297e-03	1.00025684e-04
1.10000000e+00	2.96249325e-03	1.00850441e-04
1.10500000e+00	2.95623666e-03	1.00961863e-04
1.11000000e+00	2.93788602e-03	1.00538163e-04
1.11500000e+00	2.99166003e-03	1.01516734e-04
1.12000000e+00	3.00324654e-03	1.02312264e-04
1.12500000e+00	3.01576203e-03	1.02543682e-04
1.13000000e+00	3.01001501e-03	1.03564092e-04
1.13500000e+00	3.02482428e-03	1.02827410e-04
1.14000000e+00	3.02467030e-03	1.02564643e-04
1.14500000e+00	3.03260191e-03	1.03783208e-04
1.15000000e+00	3.03979214e-03	1.04518462e-04
1.15500000e+00	3.07133490e-03	1.04678301e-04
1.16000000e+00	3.06329345e-03	1.04527794e-04
1.16500000e+00	3.05867676e-03	1.04259499e-04
1.17000000e+00	3.06507745e-03	1.05841539e-04
1.17500000e+00	3.10579243e-03	1.05670373e-04
1.18000000e+00	3.09099478e-03	1.05601393e-04
1.18500000e+00	3.10280737e-03	1.05938804e-04
1.19000000e+00	3.10919581e-03	1.07233382e-04
1.19500000e+00	3.09649045e-03	1.05577323e-04
1.20000000e+00	3.11725548e-03	1.06784700e-04
1.20500000e+00	3.13209163e-03	1.07049019e-04
1.21000000e+00	3.12864178e-03	1.08381430e-04
1.21500000e+00	3.14959219e-03	1.07365984e-04
1.22000000e+00	3.12516427e-03	1.06689482e-04
1.22500000e+00	3.13582857e-03	1.07416839e-04
1.23000000e+00	3.15538462e-03	1.08944190e-04
1.23500000e+00	3.14014899e-03	1.07710437e-04
1.24000000e+00	3.16362896e-03	1.08045171e-04
1.24500000e+00	3.16175162e-03	1.08801274e-04
1.25000000e+00	3.15692324e-03	1.09235893e-04
1.25500000e+00	3.16941258e-03	1.08351222e-04
1.26000000e+00	3.19217595e-03	1.09635567e-04
1.26500000e+00	3.19046674e-03	1.09243007e-04
1.27000000e+00	3.19438367e-03	1.11159766e-04
1.27500000e+00	3.22150296e-03	1.10889039e-04
1.28000000e+00	3.19209239e-03	1.09207774e-04
1.28500000e+00	3.19371290e-03	1.09830199e-04
1.29000000e+00	3.19580845e-03	1.10899422e-04
1.29500000e+00	3.21693752e-03	1.10514683e-04
1.30000000e+00	3.22936726e-03	1.10734466e-04
1.30500000e+00	3.23147074e-03	1.11183922e-04
1.31000000e+00	3.22409189e-03	1.12336116e-04
1.31500000e+00	3.24558774e-03	1.11590089e-04
1.32000000e+00	3.25631317e-03	1.11887423e-04
1.32500000e+00	3.25416107e-03	1.12132663e-04
1.33000000e+00	3.25102846e-03	1.13274735e-04
1.33500000e+00	3.24485550e-03	1.11590575e-04
1.34000000e+00	3.24114429e-03	1.11644750e-04
1.34500000e+00	3.26103381e-03	1.12652843e-04
1.35000000e+00	3.27082961e-03	1.14092855e-04
1.35500000e+00	3.26421820e-03	1.12285696e-04
1.36000000e+00	3.28427403e-03	1.12815450e-04
1.36500000e+00	3.27158678e-03	1.12770276e-04
1.37000000e+00	3.26689801e-03	1.14220985e-04
1.37500000e+00	3.29851336e-03	1.13608374e-04
1.38000000e+00	3.29395303e-03	1.13732868e-04
1.38500000e+00	3.28083267e-03	1.13896582e-04
1.39000000e+00	3.29153359e-03	1.14986867e-04
1.39500000e+00	3.28375895e-03	1.13017004e-04
1.40000000e+00	3.31384965e-03	1.17498466e-04
1.40500000e+00	3.25764094e-03	1.24325561e-04
1.41000000e+00	3.26181205e-03	1.30278138e-04
1.41500000e+00	3.25526701e-03	1.34839673e-04
1.42000000e+00	3.25000661e-03	1.39983189e-04
1.42500000e+00	3.20379400e-03	1.42194214e-04
1.43000000e+00	3.20516588e-03	1.47542474e-04
1.43500000e+00	3.14843045e-03	1.49397003e-04
1.44000000e+00	3.14332348e-03	1.54986675e-04
1.44500000e+00	3.17262841e-03	1.60319191e-04
1.45000000e+00	3.23119209e-03	1.57953133e-04
1.45500000e+00	3.27477698e-03	1.43758556e-04
1.46000000e+00	3.23732161e-03	1.38900013e-04
1.46500000e+00	3.21601989e-03	1.35406824e-04
1.47000000e+00	3.20460936e-03	1.34777868e-04
1.47500000e+00	3.22245698e-03	1.31502066e-04
1.48000000e+00	3.23583281e-03	1.30751609e-04
1.48500000e+00	3.20574751e-03	1.29521753e-04
1.49000000e+00	3.20736882e-03	1.29929170e-04
1.49500000e+00	3.21527464e-03	1.27452661e-04
1.50000000e+00	3.19775675e-03	1.26310548e-04
1.50500000e+00	3.19200258e-03	1.26815664e-04
1.51000000e+00	3.20199009e-03	1.27422565e-04
1.51500000e+00	3.19750722e-03	1.25144714e-04
1.52000000e+00	3.19292583e-03	1.24581656e-04
1.52500000e+00	3.24524997e-03	1.26525324e-04
1.53000000e+00	3.21470591e-03	1.25994119e-04
1.53500000e+00	3.19344784e-03	1.21568698e-04
1.54000000e+00	3.18900677e-03	1.21298163e-04
1.54500000e+00	3.18928636e-03	1.21041564e-04
1.55000000e+00	3.16301057e-03	1.19688737e-04
1.55500000e+00	3.14749004e-03	1.16409034e-04
1.56000000e+00	3.13843505e-03	1.16417487e-04
1.56500000e+00	3.14249706e-03	1.15858367e-04
1.57000000e+00	3.10632575e-03	1.13814596e-04
1.57500000e+00	3.08853175e-03	1.10996847e-04
1.58000000e+00	3.10290463e-03	1.11315787e-04
1.58500000e+00	3.06235536e-03	1.09943498e-04
1.59000000e+00	3.09132429e-03	1.10986694e-04
1.59500000e+00	3.07263234e-03	1.08275027e-04
1.60000000e+00	3.06373839e-03	1.07840127e-04
1.60500000e+00	3.06832350e-03	1.08109105e-04
1.61000000e+00	3.05504856e-03	1.07094411e-04
1.61500000e+00	3.01197297e-03	1.04664836e-04
1.62000000e+00	3.02921666e-03	1.05695134e-04
1.62500000e+00	3.04278877e-03	1.07384401e-04
1.63000000e+00	3.03175887e-03	1.05884165e-04
1.63500000e+00	3.03403975e-03	1.05896299e-04
1.64000000e+00	3.03523725e-03	1.05998427e-04
1.64500000e+00	3.00857645e-03	1.06226391e-04
1.65000000e+00	3.01941966e-03	1.05395930e-04
1.65500000e+00	3.00784096e-03	1.04951276e-04
1.66000000e+00	2.99687334e-03	1.04674015e-04
1.66500000e+00	3.00165234e-03	1.06617609e-04
1.67000000e+00	2.99478118e-03	1.04215886e-04
1.67500000e+00	2.97987751e-03	1.03882566e-04
1.68000000e+00	2.96111830e-03	1.03622061e-04
1.68500000e+00	2.99022745e-03	1.06236815e-04
1.69000000e+00	2.96477927e-03	1.03403102e-04
1.69500000e+00	2.96639742e-03	1.03283074e-04
1.70000000e+00	2.96696319e-03	1.04570543e-04
1.70500000e+00	2.95051547e-03	1.04351762e-04
1.71000000e+00	2.94905907e-03	1.02924734e-04
1.71500000e+00	2.90216764e-03	1.01275052e-04
1.72000000e+00	2.92228853e-03	1.02805817e-04
1.72500000e+00	2.90398388e-03	1.02694467e-04
1.73000000e+00	2.89806246e-03	1.01190410e-04
1.73500000e+00	2.89851933e-03	1.01511061e-04
1.74000000e+00	2.87376160e-03	1.00876252e-04
1.74500000e+00	2.88605845e-03	1.02530819e-04
1.75000000e+00	2.84646878e-03	9.92226574e-05
1.75500000e+00	2.83484329e-03	9.94416732e-05
1.76000000e+00	2.86599045e-03	1.00450697e-04
1.76500000e+00	2.85858181e-03	1.01467416e-04
1.77000000e+00	2.81437549e-03	9.82573204e-05
1.77500000e+00	2.82780266e-03	9.89652520e-05
1.78000000e+00	2.80974598e-03	9.86125793e-05
1.78500000e+00	2.82059254e-03	1.00055120e-04
1.79000000e+00	2.79905156e-03	9.76084248e-05
1.79500000e+00	2.79192132e-03	9.77630434e-05
1.80000000e+00	2.76072423e-03	9.71921705e-05
1.80500000e+00	2.75930732e-03	9.77823350e-05
1.81000000e+00	2.77734299e-03	9.68920023e-05
1.81500000e+00	2.75985282e-03	9.64534666e-05
1.82000000e+00	2.73452187e-03	9.61611212e-05
1.82500000e+00	2.71351458e-03	9.60385341e-05
1.83000000e+00	2.72196372e-03	9.50910647e-05
1.83500000e+00	2.71027050e-03	9.47842976e-05
1.84000000e+00	2.71762685e-03	9.56541364e-05
1.84500000e+00	2.68631038e-03	9.50647177e-05
1.85000000e+00	2.68278790e-03	9.38362290e-05
1.85500000e+00	2.67777605e-03	9.37658328e-05
1.86000000e+00	2.67351300e-03	9.41787175e-05
1.86500000e+00	2.67176821e-03	9.43329411e-05
1.87000000e+00	2.66889353e-03	9.32423833e-05
1.87500000e+00	2.70303244e-03	9.54570149e-05
1.88000000e+00	2.74780102e-03	9.97249983e-05
1.88500000e+00	2.67812090e-03	9.53435000e-05
1.89000000e+00	2.61328017e-03	9.12978098e-05
1.89500000e+00	2.61330141e-03	9.18213573e-05
1.90000000e+00	2.60865510e-03	9.19582107e-05
1.90500000e+00	2.59631657e-03	9.15040592e-05
1.91000000e+00	2.61134987e-03	9.14211752e-05
1.91500000e+00	2.58486249e-03	9.06136898e-05
1.92000000e+00	2.57217313e-03	9.05670944e-05
1.92500000e+00	2.57714955e-03	9.09162659e-05
1.93000000e+00	2.58361486e-03	9.03112912e-05
1.93500000e+00	2.56419540e-03	9.03054318e-05
1.94000000e+00	2.55894043e-03	9.04778096e-05
1.94500000e+00	2.53460438e-03	8.93106359e-05
1.95000000e+00	2.54471617e-03	8.88192576e-05
1.95500000e+00	2.51842950e-03	8.83290287e-05
1.96000000e+00	2.50123702e-03	8.81963453e-05
1.96500000e+00	2.49884267e-03	8.81743647e-05
1.97000000e+00	2.50597213e-03	8.73872207e-05
1.97500000e+00	2.50355765e-03	8.79154162e-05
1.98000000e+00	2.46526608e-03	8.69426123e-05
1.98500000e+00	2.47312107e-03	8.74141909e-05
1.99000000e+00	2.48031698e-03	8.65429248e-05
1.99500000e+00	2.45838578e-03	8.61844491e-05
2.00000000e+00	2.43620556e-03	8.60163060e-05
2.00500000e+00	2.44415223e-03	8.64430575e-05
2.01000000e+00	2.46193230e-03	9.55386663e-05
2.01500000e+00	2.39777092e-03	9.87926014e-05
2.02000000e+00	2.42507815e-03	1.06477802e-04
2.02500000e+00	2.39357419e-03	1.09387396e-04
2.03000000e+00	2.36667192e-03	1.14612380e-04
2.03500000e+00	2.34391883e-03	1.18365415e-04
2.04000000e+00	2.35208325e-03	1.24203986e-04
2.04500000e+00	2.32835751e-03	1.29180318e-04
2.05000000e+00	2.30852104e-03	1.34681112e-04
2.05500000e+00	2.35647108e-03	1.34769779e-04
2.06000000e+00	2.34446653e-03	1.16615885e-04
2.06500000e+00	2.36570451e-03	1.12255085e-04
2.07000000e+00	2.36282976e-03	1.06343797e-04
2.07500000e+00	2.34774556e-03	1.03124249e-04
2.08000000e+00	2.34591484e-03	1.02903944e-04
2.08500000e+00	2.32939302e-03	1.01295062e-04
2.09000000e+00	2.35477689e-03	9.92823436e-05
2.09500000e+00	2.31873704e-03	9.68721327e-05
2.10000000e+00	2.32283282e-03	9.63379160e-05
2.10500000e+00	2.31416193e-03	9.57213211e-05
2.11000000e+00	2.31402277e-03	9.21829518e-05
2.11500000e+00	2.27928198e-03	8.99301416e-05
2.12000000e+00	2.25636947e-03	8.85229676e-05
2.12500000e+00	2.25860861e-03	8.84031263e-05
2.13000000e+00	2.24556238e-03	8.43135294e-05
2.13500000e+00	2.21741203e-03	8.22203674e-05
2.14000000e+00	2.19600475e-03	8.07562202e-05
2.14500000e+00	2.18984807e-03	8.06315620e-05
2.15000000e+00	2.17687232e-03	7.75939066e-05
2.15500000e+00	2.15935140e-03	7.70725507e-05
2.16000000e+00	2.15359374e-03	7.65063774e-05
2.16500000e+00	2.15742888e-03	7.71219535e-05
2.17000000e+00	2.14511533e-03	7.48364042e-05
2.17500000e+00	2.11984703e-03	7.41157147e-05
2.18000000e+00	2.11706480e-03	7.42829570e-05
2.18500000e+00	2.10649985e-03	7.42538732e-05
2.19000000e+00	2.11699120e-03	7.44098454e-05
2.19500000e+00	2.09455459e-03	7.32906442e-05
2.20000000e+00	2.08442930e-03	7.30810009e-05
2.20500000e+00	2.06567109e-03	7.26989188e-05
2.21000000e+00	2.06021600e-03	7.28237187e-05
2.21500000e+00	2.04587714e-03	7.14845769e-05
2.22000000e+00	2.01310165e-03	7.03158040e-05
2.22500000e+00	2.03170711e-03	7.15938670e-05
2.23000000e+00	2.01714380e-03	7.13609926e-05
2.23500000e+00	1.98896193e-03	6.94485047e-05
2.24000000e+00	1.98967016e-03	6.95534757e-05
2.24500000e+00	1.97749835e-03	6.95671980e-05
2.25000000e+00	1.98764420e-03	7.04899069e-05
2.25500000e+00	1.94773136e-03	6.78604640e-05
2.26000000e+00	1.92088211e-03	6.71916775e-05
2.26500000e+00	1.93883974e-03	6.80661190e-05
2.27000000e+00	1.92424134e-03	6.85360254e-05
2.27500000e+00	1.90190641e-03	6.63773821e-05
2.28000000e+00	1.89604937e-03	6.61750436e-05
2.28500000e+00	1.88177087e-03	6.60853148e-05
2.29000000e+00	1.86455499e-03	6.58878650e-05
2.29500000e+00	1.85455294e-03	6.53992213e-05
2.30000000e+00	1.86734271e-03	6.51838759e-05
2.30500000e+00	1.82759251e-03	6.38862569e-05
2.31000000e+00	1.81975285e-03	6.39873353e-05
2.31500000e+00	1.80287620e-03	6.39118684e-05
2.32000000e+00	1.79747482e-03	6.24687186e-05
2.32500000e+00	1.80559632e-03	6.31762625e-05
2.33000000e+00	1.77761973e-03	6.24670339e-05
2.33500000e+00	1.76426672e-03	6.25804222e-05
2.34000000e+00	1.76578937e-03	6.15689409e-05
2.34500000e+00	1.75827134e-03	6.13025562e-05
2.35000000e+00	1.73019970e-03	6.05976686e-05
2.35500000e+00	1.71803824e-03	6.10077153e-05
2.36000000e+00	1.72659234e-03	6.02885246e-05
2.36500000e+00	1.70398323e-03	5.94990953e-05
2.37000000e+00	1.70052692e-03	5.94142899e-05
2.37500000e+00	1.68866905e-03	5.95761557e-05
2.38000000e+00	1.67265381e-03	5.92539129e-05
2.38500000e+00	1.67800019e-03	5.85396070e-05
2.39000000e+00	1.65659081e-03	5.80746795e-05
2.39500000e+00	1.64842144e-03	5.80664790e-05
2.40000000e+00	1.64340498e-03	5.87099576e-05
2.40500000e+00	1.63786885e-03	5.72624196e-05
2.41000000e+00	1.62667598e-03	5.71636540e-05
2.41500000e+00	1.60257870e-03	5.63831191e-05
2.42000000e+00	1.60300889e-03	5.70788866e-05
2.42500000e+00	1.59615671e-03	5.67344300e-05
2.43000000e+00	1.60830968e-03	5.65940314e-05
2.43500000e+00	1.56318764e-03	5.52262436e-05
2.44000000e+00	1.56602627e-03	5.54834934e-05
2.44500000e+00	1.53844527e-03	5.52505547e-05
2.45000000e+00	1.53950498e-03	5.43381818e-05
2.45500000e+00	1.52328785e-03	5.39052787e-05
2.46000000e+00	1.51738647e-03	5.38866632e-05
2.46500000e+00	1.52769332e-03	5.48928778e-05
2.47000000e+00	1.50460003e-03	5.35563822e-05
2.47500000e+00	1.48094115e-03	5.24330733e-05
2.48000000e+00	1.49475716e-03	5.33309564e-05
2.48500000e+00	1.48046344e-03	5.28344928e-05
2.49000000e+00	1.45868649e-03	5.28006046e-05
2.49500000e+00	1.46916445e-03	5.21015026e-05
2.50000000e+00	1.46106748e-03	5.20040980e-05
2.50500000e+00	1.45712519e-03	5.20858748e-05
2.51000000e+00	1.44311869e-03	5.19457596e-05
2.51500000e+00	1.44452551e-03	5.21461926e-05
2.52000000e+00	1.43557089e-03	5.13481744e-05
2.52500000e+00	1.43322430e-03	5.14520761e-05
2.53000000e+00	1.41253706e-03	5.12883859e-05
2.53500000e+00	1.42198359e-03	5.22113899e-05
2.54000000e+00	1.39255684e-03	5.02559574e-05
2.54500000e+00	1.39840215e-03	5.06674684e-05
2.55000000e+00	1.37447849e-03	5.00171632e-05
2.55500000e+00	1.37483004e-03	5.04862495e-05
2.56000000e+00	1.35854725e-03	5.02414485e-05
2.56500000e+00	1.35252599e-03	4.95253647e-05
2.57000000e+00	1.35868684e-03	4.99632044e-05
2.57500000e+00	1.35455823e-03	4.99004018e-05
2.58000000e+00	1.33019429e-03	4.98217024e-05
2.58500000e+00	1.34038105e-03	4.98205451e-05
2.59000000e+00	1.31443556e-03	4.86543883e-05
2.59500000e+00	1.31505911e-03	4.89383830e-05
2.60000000e+00	1.31136801e-03	4.91576477e-05
2.60500000e+00	1.31893892e-03	5.04789056e-05
2.61000000e+00	1.30465542e-03	5.69617576e-05
2.61500000e+00	1.29930971e-03	6.27311746e-05
2.62000000e+00	1.29591263e-03	6.87703048e-05
2.62500000e+00	1.30544026e-03	7.49735037e-05
2.63000000e+00	1.27868426e-03	8.11929198e-05
2.63500000e+00	1.29311313e-03	9.09476940e-05
2.64000000e+00	1.27007796e-03	9.86382384e-05
2.64500000e+00	1.27799752e-03	1.05912315e-04
2.65000000e+00	1.27229307e-03	1.11667713e-04
2.65500000e+00	1.28641322e-03	1.21061198e-04
2.66000000e+00	1.28702761e-03	1.30334525e-04
2.66500000e+00	1.23484969e-03	1.40660942e-04
2.67000000e+00	1.27190683e-03	1.57339431e-04
2.67500000e+00	1.24082433e-03	1.78727118e-04
2.68000000e+00	1.25230774e-03	2.10996930e-04
2.68500000e+00	1.25694976e-03	2.76526469e-04
2.69000000e+00	1.30569452e-03	4.64378882e-04
2.69500000e+00	0.00000000e+00	0.00000000e+00
2.70000000e+00	0.00000000e+00	0.00000000e+00
