% Filename : WEC6_00037_00003.h5
% Date & Time : 30-Oct-2025 17:40:10
% X-ray Energy (keV) : 13.30001
% Exposure Time (s) : 0.500
% Photodiode Value : 141817.000
% I0 of Sample : 0
% I0 of Standard : 1
% 
% q(A^-1)   I(q)    I(q)_SE
8.40000000e-01	0.00000000e+00	0.00000000e+00
8.45000000e-01	3.02653638e-03	5.29590291e-04
8.50000000e-01	2.83122465e-03	2.63027075e-04
8.55000000e-01	2.74011781e-03	2.23673053e-04
8.60000000e-01	2.76386248e-03	1.95221105e-04
8.65000000e-01	2.78963206e-03	1.81777591e-04
8.70000000e-01	2.76805041e-03	1.71804041e-04
8.75000000e-01	2.78893731e-03	1.66631511e-04
8.80000000e-01	2.82522849e-03	1.63219562e-04
8.85000000e-01	2.84091226e-03	1.55101340e-04
8.90000000e-01	2.80685654e-03	1.49915110e-04
8.95000000e-01	2.84099344e-03	1.47527835e-04
9.00000000e-01	2.80391714e-03	1.44308198e-04
9.05000000e-01	2.80933122e-03	1.38283434e-04
9.10000000e-01	2.84179638e-03	1.37367499e-04
9.15000000e-01	2.87108749e-03	1.36515260e-04
9.20000000e-01	2.84385632e-03	1.34996779e-04
9.25000000e-01	2.87913318e-03	1.30807959e-04
9.30000000e-01	2.85247053e-03	1.28289019e-04
9.35000000e-01	2.87264375e-03	1.26749898e-04
9.40000000e-01	2.87273453e-03	1.27138744e-04
9.45000000e-01	2.89362938e-03	1.24901318e-04
9.50000000e-01	2.89777079e-03	1.23196557e-04
9.55000000e-01	2.90049203e-03	1.21007791e-04
9.60000000e-01	2.88454977e-03	1.20509801e-04
9.65000000e-01	2.88652259e-03	1.18605297e-04
9.70000000e-01	2.93036027e-03	1.18333730e-04
9.75000000e-01	2.92567097e-03	1.17044911e-04
9.80000000e-01	2.92399731e-03	1.15894391e-04
9.85000000e-01	2.91487173e-03	1.15612277e-04
9.90000000e-01	2.93134604e-03	1.12752049e-04
9.95000000e-01	2.92928056e-03	1.12184190e-04
1.00000000e+00	2.92546574e-03	1.11460836e-04
1.00500000e+00	2.93301314e-03	1.11797504e-04
1.01000000e+00	2.95198030e-03	1.10122648e-04
1.01500000e+00	2.94749565e-03	1.08877833e-04
1.02000000e+00	2.93289097e-03	1.08338825e-04
1.02500000e+00	2.93883905e-03	1.07210718e-04
1.03000000e+00	2.92092966e-03	1.06205499e-04
1.03500000e+00	2.93060599e-03	1.05027808e-04
1.04000000e+00	2.91044503e-03	1.03641194e-04
1.04500000e+00	2.91777341e-03	1.03859524e-04
1.05000000e+00	2.89683287e-03	1.02517899e-04
1.05500000e+00	2.90727141e-03	1.01373112e-04
1.06000000e+00	2.90422901e-03	1.00982939e-04
1.06500000e+00	2.90895056e-03	1.01263878e-04
1.07000000e+00	2.90080981e-03	1.00794042e-04
1.07500000e+00	2.91032766e-03	1.00324236e-04
1.08000000e+00	2.92764176e-03	1.00250358e-04
1.08500000e+00	2.94017233e-03	1.00852572e-04
1.09000000e+00	2.95912989e-03	1.02122980e-04
1.09500000e+00	2.94659003e-03	9.97074039e-05
1.10000000e+00	2.97654302e-03	1.01221907e-04
1.10500000e+00	2.97584292e-03	1.01599538e-04
1.11000000e+00	2.98971597e-03	1.02222556e-04
1.11500000e+00	2.99145194e-03	1.01567163e-04
1.12000000e+00	2.99458990e-03	1.02039733e-04
1.12500000e+00	3.02087505e-03	1.02689793e-04
1.13000000e+00	3.02933550e-03	1.04185310e-04
1.13500000e+00	3.04384768e-03	1.03327424e-04
1.14000000e+00	3.03656863e-03	1.02976275e-04
1.14500000e+00	3.06128437e-03	1.04679772e-04
1.15000000e+00	3.06091485e-03	1.05188731e-04
1.15500000e+00	3.06295124e-03	1.04201489e-04
1.16000000e+00	3.06377419e-03	1.04629421e-04
1.16500000e+00	3.07538103e-03	1.04749998e-04
1.17000000e+00	3.07354092e-03	1.06085706e-04
1.17500000e+00	3.09641121e-03	1.05387951e-04
1.18000000e+00	3.10511392e-03	1.06075247e-04
1.18500000e+00	3.12973784e-03	1.06788232e-04
1.19000000e+00	3.12962637e-03	1.07901073e-04
1.19500000e+00	3.13928879e-03	1.06978828e-04
1.20000000e+00	3.14067840e-03	1.07640259e-04
1.20500000e+00	3.14732857e-03	1.07734937e-04
1.21000000e+00	3.16154604e-03	1.09444431e-04
1.21500000e+00	3.14426602e-03	1.07169652e-04
1.22000000e+00	3.15638343e-03	1.07795564e-04
1.22500000e+00	3.17952480e-03	1.08901411e-04
1.23000000e+00	3.17340562e-03	1.09719824e-04
1.23500000e+00	3.19750799e-03	1.09687836e-04
1.24000000e+00	3.18222156e-03	1.08646292e-04
1.24500000e+00	3.19205236e-03	1.09770095e-04
1.25000000e+00	3.19937840e-03	1.10637049e-04
1.25500000e+00	3.20407193e-03	1.09503396e-04
1.26000000e+00	3.18857374e-03	1.09583824e-04
1.26500000e+00	3.18544851e-03	1.09046262e-04
1.27000000e+00	3.21847021e-03	1.11916212e-04
1.27500000e+00	3.22765025e-03	1.11050612e-04
1.28000000e+00	3.21815083e-03	1.10016817e-04
1.28500000e+00	3.22322258e-03	1.10914313e-04
1.29000000e+00	3.20593204e-03	1.11235931e-04
1.29500000e+00	3.23838592e-03	1.11096387e-04
1.30000000e+00	3.20340235e-03	1.09792828e-04
1.30500000e+00	3.24902406e-03	1.11887899e-04
1.31000000e+00	3.23823373e-03	1.12786920e-04
1.31500000e+00	3.24445156e-03	1.11590159e-04
1.32000000e+00	3.26646880e-03	1.12154394e-04
1.32500000e+00	3.24965569e-03	1.11959303e-04
1.33000000e+00	3.26288080e-03	1.13712249e-04
1.33500000e+00	3.25482987e-03	1.11888425e-04
1.34000000e+00	3.26272270e-03	1.12268415e-04
1.34500000e+00	3.24656903e-03	1.12184939e-04
1.35000000e+00	3.28333912e-03	1.14562167e-04
1.35500000e+00	3.25040207e-03	1.11797946e-04
1.36000000e+00	3.27288543e-03	1.12471925e-04
1.36500000e+00	3.26839247e-03	1.12656497e-04
1.37000000e+00	3.26596179e-03	1.14247875e-04
1.37500000e+00	3.27560583e-03	1.12814891e-04
1.38000000e+00	3.27209435e-03	1.12981860e-04
1.38500000e+00	3.28162152e-03	1.13847418e-04
1.39000000e+00	3.28362580e-03	1.14730479e-04
1.39500000e+00	3.28371357e-03	1.13019057e-04
1.40000000e+00	3.30373174e-03	1.17191166e-04
1.40500000e+00	3.27845641e-03	1.25196298e-04
1.41000000e+00	3.27571562e-03	1.30776790e-04
1.41500000e+00	3.23081511e-03	1.33732071e-04
1.42000000e+00	3.22049612e-03	1.38786018e-04
1.42500000e+00	3.20809677e-03	1.42241266e-04
1.43000000e+00	3.21020992e-03	1.47748653e-04
1.43500000e+00	3.19190335e-03	1.51421743e-04
1.44000000e+00	3.19130664e-03	1.57283406e-04
1.44500000e+00	3.15652768e-03	1.59592434e-04
1.45000000e+00	3.21954935e-03	1.57510792e-04
1.45500000e+00	3.24413561e-03	1.42552474e-04
1.46000000e+00	3.23791045e-03	1.38912097e-04
1.46500000e+00	3.21904892e-03	1.35600257e-04
1.47000000e+00	3.24432571e-03	1.36355696e-04
1.47500000e+00	3.23220655e-03	1.31937688e-04
1.48000000e+00	3.24620111e-03	1.31042709e-04
1.48500000e+00	3.23964908e-03	1.31008147e-04
1.49000000e+00	3.21323856e-03	1.30136628e-04
1.49500000e+00	3.20975990e-03	1.27220563e-04
1.50000000e+00	3.23104139e-03	1.27623413e-04
1.50500000e+00	3.21687965e-03	1.27735968e-04
1.51000000e+00	3.23317282e-03	1.28595504e-04
1.51500000e+00	3.23047324e-03	1.26500459e-04
1.52000000e+00	3.23937180e-03	1.26348264e-04
1.52500000e+00	3.22817494e-03	1.25766627e-04
1.53000000e+00	3.25401477e-03	1.27525915e-04
1.53500000e+00	3.21400031e-03	1.22385921e-04
1.54000000e+00	3.22757872e-03	1.22775242e-04
1.54500000e+00	3.19913648e-03	1.21448224e-04
1.55000000e+00	3.18775591e-03	1.20628883e-04
1.55500000e+00	3.19668364e-03	1.18243383e-04
1.56000000e+00	3.16996192e-03	1.17517637e-04
1.56500000e+00	3.14017433e-03	1.15774524e-04
1.57000000e+00	3.12132597e-03	1.14342958e-04
1.57500000e+00	3.13361038e-03	1.12665084e-04
1.58000000e+00	3.13762602e-03	1.12576478e-04
1.58500000e+00	3.12406366e-03	1.12086726e-04
1.59000000e+00	3.10921077e-03	1.11595320e-04
1.59500000e+00	3.09827994e-03	1.09110377e-04
1.60000000e+00	3.09590941e-03	1.08974410e-04
1.60500000e+00	3.06350807e-03	1.07862486e-04
1.61000000e+00	3.07261899e-03	1.07692559e-04
1.61500000e+00	3.08469399e-03	1.07208214e-04
1.62000000e+00	3.08061201e-03	1.07464475e-04
1.62500000e+00	3.05564980e-03	1.07893850e-04
1.63000000e+00	3.04960147e-03	1.06502215e-04
1.63500000e+00	3.02245755e-03	1.05474675e-04
1.64000000e+00	3.02533282e-03	1.05697980e-04
1.64500000e+00	3.04608910e-03	1.07589605e-04
1.65000000e+00	3.01007746e-03	1.05128062e-04
1.65500000e+00	3.00321181e-03	1.04846716e-04
1.66000000e+00	3.01646603e-03	1.05422702e-04
1.66500000e+00	3.00085149e-03	1.06583150e-04
1.67000000e+00	3.00257444e-03	1.04437866e-04
1.67500000e+00	2.98181519e-03	1.03977715e-04
1.68000000e+00	2.99566812e-03	1.04806510e-04
1.68500000e+00	2.99097433e-03	1.06401826e-04
1.69000000e+00	2.97110131e-03	1.03583531e-04
1.69500000e+00	2.95114301e-03	1.02746210e-04
1.70000000e+00	2.93528603e-03	1.03378673e-04
1.70500000e+00	2.91411545e-03	1.03134356e-04
1.71000000e+00	2.92631338e-03	1.02161723e-04
1.71500000e+00	2.92441043e-03	1.02133657e-04
1.72000000e+00	2.93334908e-03	1.03228455e-04
1.72500000e+00	2.91553532e-03	1.03209176e-04
1.73000000e+00	2.89679321e-03	1.01173293e-04
1.73500000e+00	2.88373030e-03	1.00959263e-04
1.74000000e+00	2.88138579e-03	1.01224902e-04
1.74500000e+00	2.88363769e-03	1.02471235e-04
1.75000000e+00	2.86192229e-03	9.97513527e-05
1.75500000e+00	2.84557508e-03	9.97849516e-05
1.76000000e+00	2.84344344e-03	9.96953153e-05
1.76500000e+00	2.83836347e-03	1.00820204e-04
1.77000000e+00	2.84886586e-03	9.93454351e-05
1.77500000e+00	2.85453378e-03	9.98871648e-05
1.78000000e+00	2.82666846e-03	9.93112744e-05
1.78500000e+00	2.83716821e-03	1.00636741e-04
1.79000000e+00	2.79420693e-03	9.74699923e-05
1.79500000e+00	2.78429253e-03	9.74227645e-05
1.80000000e+00	2.79850742e-03	9.85354349e-05
1.80500000e+00	2.79920202e-03	9.90865315e-05
1.81000000e+00	2.80587863e-03	9.79331141e-05
1.81500000e+00	2.78211547e-03	9.71551863e-05
1.82000000e+00	2.78767397e-03	9.79566798e-05
1.82500000e+00	2.76189608e-03	9.77237068e-05
1.83000000e+00	2.76493377e-03	9.66549661e-05
1.83500000e+00	2.76512092e-03	9.67339833e-05
1.84000000e+00	2.73290164e-03	9.61151426e-05
1.84500000e+00	2.72930262e-03	9.65837356e-05
1.85000000e+00	2.72029208e-03	9.51664694e-05
1.85500000e+00	2.69965672e-03	9.45071182e-05
1.86000000e+00	2.68708576e-03	9.47007728e-05
1.86500000e+00	2.70490705e-03	9.55775689e-05
1.87000000e+00	2.66975382e-03	9.32811025e-05
1.87500000e+00	2.66423513e-03	9.33985614e-05
1.88000000e+00	2.65145857e-03	9.32962423e-05
1.88500000e+00	2.67295300e-03	9.46628795e-05
1.89000000e+00	2.65893257e-03	9.28879752e-05
1.89500000e+00	2.63484088e-03	9.25718570e-05
1.90000000e+00	2.64287891e-03	9.30853956e-05
1.90500000e+00	2.64554566e-03	9.32168684e-05
1.91000000e+00	2.61147219e-03	9.14264717e-05
1.91500000e+00	2.63975657e-03	9.24580806e-05
1.92000000e+00	2.62435045e-03	9.24811285e-05
1.92500000e+00	2.63502759e-03	9.29815391e-05
1.93000000e+00	2.61305306e-03	9.13090153e-05
1.93500000e+00	2.60573954e-03	9.13884845e-05
1.94000000e+00	2.60012833e-03	9.18232373e-05
1.94500000e+00	2.56909090e-03	9.05188357e-05
1.95000000e+00	2.56724178e-03	8.96324310e-05
1.95500000e+00	2.56044199e-03	8.97845871e-05
1.96000000e+00	2.55450771e-03	9.01044311e-05
1.96500000e+00	2.54464445e-03	8.98069459e-05
1.97000000e+00	2.53490770e-03	8.83664762e-05
1.97500000e+00	2.51850935e-03	8.83451832e-05
1.98000000e+00	2.50338481e-03	8.82923444e-05
1.98500000e+00	2.51003976e-03	8.86269767e-05
1.99000000e+00	2.49024758e-03	8.68454345e-05
1.99500000e+00	2.50997983e-03	8.79184329e-05
2.00000000e+00	2.46540621e-03	8.70632567e-05
2.00500000e+00	2.48019523e-03	8.76993105e-05
2.01000000e+00	2.47125895e-03	9.59095834e-05
2.01500000e+00	2.45095513e-03	1.00968134e-04
2.02000000e+00	2.42080383e-03	1.06358440e-04
2.02500000e+00	2.41663101e-03	1.10277799e-04
2.03000000e+00	2.40453888e-03	1.16248160e-04
2.03500000e+00	2.39035614e-03	1.20850244e-04
2.04000000e+00	2.35153708e-03	1.24202972e-04
2.04500000e+00	2.33806996e-03	1.29661655e-04
2.05000000e+00	2.31786559e-03	1.35306387e-04
2.05500000e+00	2.37979951e-03	1.36033571e-04
2.06000000e+00	2.40317539e-03	1.19653446e-04
2.06500000e+00	2.40298264e-03	1.14156257e-04
2.07000000e+00	2.39760675e-03	1.07808072e-04
2.07500000e+00	2.35789345e-03	1.03692875e-04
2.08000000e+00	2.36389482e-03	1.03663249e-04
2.08500000e+00	2.35663081e-03	1.02432826e-04
2.09000000e+00	2.35963917e-03	9.96063871e-05
2.09500000e+00	2.37634994e-03	9.91998782e-05
2.10000000e+00	2.31563826e-03	9.60836254e-05
2.10500000e+00	2.33307961e-03	9.63995576e-05
2.11000000e+00	2.30308362e-03	9.16945958e-05
2.11500000e+00	2.30999334e-03	9.10651281e-05
2.12000000e+00	2.26879270e-03	8.90363451e-05
2.12500000e+00	2.26545506e-03	8.85839190e-05
2.13000000e+00	2.25061776e-03	8.45132074e-05
2.13500000e+00	2.24266466e-03	8.30497899e-05
2.14000000e+00	2.21461321e-03	8.14106223e-05
2.14500000e+00	2.20302489e-03	8.11186158e-05
2.15000000e+00	2.21594591e-03	7.89617512e-05
2.15500000e+00	2.17226627e-03	7.75604635e-05
2.16000000e+00	2.17715094e-03	7.73229155e-05
2.16500000e+00	2.17041760e-03	7.75912773e-05
2.17000000e+00	2.15927470e-03	7.53278723e-05
2.17500000e+00	2.15924869e-03	7.56229103e-05
2.18000000e+00	2.17549514e-03	7.62930187e-05
2.18500000e+00	2.12888678e-03	7.50641671e-05
2.19000000e+00	2.14123633e-03	7.52811497e-05
2.19500000e+00	2.10724926e-03	7.37287409e-05
2.20000000e+00	2.09058984e-03	7.33555961e-05
2.20500000e+00	2.11868289e-03	7.54778229e-05
2.21000000e+00	2.07503451e-03	7.34016685e-05
2.21500000e+00	2.06047357e-03	7.20153371e-05
2.22000000e+00	2.02851678e-03	7.08538597e-05
2.22500000e+00	2.03452124e-03	7.17046994e-05
2.23000000e+00	2.00885978e-03	7.11550733e-05
2.23500000e+00	2.01997373e-03	7.05743087e-05
2.24000000e+00	2.00266628e-03	7.00475662e-05
2.24500000e+00	1.99469542e-03	7.02398768e-05
2.25000000e+00	1.98253613e-03	7.03827033e-05
2.25500000e+00	1.98144902e-03	6.90686283e-05
2.26000000e+00	1.95065908e-03	6.81413846e-05
2.26500000e+00	1.93166941e-03	6.77734228e-05
2.27000000e+00	1.91914820e-03	6.82913811e-05
2.27500000e+00	1.92711975e-03	6.71874506e-05
2.28000000e+00	1.91103420e-03	6.66245219e-05
2.28500000e+00	1.90536525e-03	6.69201458e-05
2.29000000e+00	1.88839883e-03	6.67018187e-05
2.29500000e+00	1.88594833e-03	6.64540925e-05
2.30000000e+00	1.87658826e-03	6.55196923e-05
2.30500000e+00	1.84947234e-03	6.46722895e-05
2.31000000e+00	1.83664200e-03	6.45268185e-05
2.31500000e+00	1.81919985e-03	6.44688207e-05
2.32000000e+00	1.81627925e-03	6.31291017e-05
2.32500000e+00	1.79893336e-03	6.30504144e-05
2.33000000e+00	1.79004441e-03	6.28326854e-05
2.33500000e+00	1.80147749e-03	6.38514490e-05
2.34000000e+00	1.79260457e-03	6.25262169e-05
2.34500000e+00	1.75498599e-03	6.12252259e-05
2.35000000e+00	1.74856365e-03	6.12171946e-05
2.35500000e+00	1.74896282e-03	6.20314860e-05
2.36000000e+00	1.74933815e-03	6.11443205e-05
2.36500000e+00	1.70374631e-03	5.95576639e-05
2.37000000e+00	1.70626259e-03	5.96140406e-05
2.37500000e+00	1.69753822e-03	5.97709789e-05
2.38000000e+00	1.69971486e-03	6.01052923e-05
2.38500000e+00	1.68200181e-03	5.87124691e-05
2.39000000e+00	1.66874858e-03	5.84897294e-05
2.39500000e+00	1.67489980e-03	5.89096714e-05
2.40000000e+00	1.63483187e-03	5.84495742e-05
2.40500000e+00	1.64922182e-03	5.77094983e-05
2.41000000e+00	1.63465873e-03	5.74202424e-05
2.41500000e+00	1.63708639e-03	5.74744503e-05
2.42000000e+00	1.62785237e-03	5.79781742e-05
2.42500000e+00	1.60021121e-03	5.69542505e-05
2.43000000e+00	1.60597175e-03	5.65828727e-05
2.43500000e+00	1.59991172e-03	5.65611490e-05
2.44000000e+00	1.58176134e-03	5.60199488e-05
2.44500000e+00	1.55285247e-03	5.57835072e-05
2.45000000e+00	1.54545539e-03	5.44563795e-05
2.45500000e+00	1.54100745e-03	5.44739485e-05
2.46000000e+00	1.53714027e-03	5.45652279e-05
2.46500000e+00	1.52654335e-03	5.48718654e-05
2.47000000e+00	1.53033959e-03	5.44487786e-05
2.47500000e+00	1.52569235e-03	5.39437856e-05
2.48000000e+00	1.50760127e-03	5.38374470e-05
2.48500000e+00	1.49513219e-03	5.32845751e-05
2.49000000e+00	1.49335167e-03	5.40185657e-05
2.49500000e+00	1.47546312e-03	5.23349911e-05
2.50000000e+00	1.47636915e-03	5.24402944e-05
2.50500000e+00	1.47126885e-03	5.26333786e-05
2.51000000e+00	1.45410841e-03	5.23706364e-05
2.51500000e+00	1.44315884e-03	5.21141034e-05
2.52000000e+00	1.44963677e-03	5.18687254e-05
2.52500000e+00	1.43265674e-03	5.14618209e-05
2.53000000e+00	1.42864659e-03	5.17759187e-05
2.53500000e+00	1.41652314e-03	5.19457797e-05
2.54000000e+00	1.41894943e-03	5.12142162e-05
2.54500000e+00	1.41243850e-03	5.11958985e-05
2.55000000e+00	1.40900267e-03	5.13402575e-05
2.55500000e+00	1.39471246e-03	5.12392790e-05
2.56000000e+00	1.38104246e-03	5.09476442e-05
2.56500000e+00	1.38101502e-03	5.05344940e-05
2.57000000e+00	1.38235384e-03	5.07652339e-05
2.57500000e+00	1.36374964e-03	5.02361752e-05
2.58000000e+00	1.33663438e-03	5.01442356e-05
2.58500000e+00	1.35433345e-03	5.02658333e-05
2.59000000e+00	1.33926078e-03	4.95741221e-05
2.59500000e+00	1.32445460e-03	4.92345691e-05
2.60000000e+00	1.32440036e-03	4.96164718e-05
2.60500000e+00	1.34480872e-03	5.14601787e-05
2.61000000e+00	1.32541152e-03	5.78003100e-05
2.61500000e+00	1.31546710e-03	6.35097058e-05
2.62000000e+00	1.29705782e-03	6.87614230e-05
2.62500000e+00	1.32312953e-03	7.59498268e-05
2.63000000e+00	1.29009479e-03	8.20371058e-05
2.63500000e+00	1.28245842e-03	9.03941331e-05
2.64000000e+00	1.30501429e-03	1.01292253e-04
2.64500000e+00	1.27327441e-03	1.05237221e-04
2.65000000e+00	1.27168075e-03	1.11802247e-04
2.65500000e+00	1.28357740e-03	1.20504813e-04
2.66000000e+00	1.25789809e-03	1.26938546e-04
2.66500000e+00	1.26020552e-03	1.43467733e-04
2.67000000e+00	1.27511078e-03	1.57182087e-04
2.67500000e+00	1.23146267e-03	1.76807657e-04
2.68000000e+00	1.24628030e-03	2.09302364e-04
2.68500000e+00	1.30686798e-03	2.89456233e-04
2.69000000e+00	1.19891024e-03	4.26175986e-04
2.69500000e+00	0.00000000e+00	0.00000000e+00
2.70000000e+00	0.00000000e+00	0.00000000e+00
