% Filename : WEC6_00037_00007.h5
% Date & Time : 30-Oct-2025 17:40:21
% X-ray Energy (keV) : 13.30001
% Exposure Time (s) : 0.500
% Photodiode Value : 141343.000
% I0 of Sample : 0
% I0 of Standard : 1
% 
% q(A^-1)   I(q)    I(q)_SE
8.40000000e-01	0.00000000e+00	0.00000000e+00
8.45000000e-01	3.02944703e-03	5.30222772e-04
8.50000000e-01	2.81170313e-03	2.61103670e-04
8.55000000e-01	2.71604950e-03	2.21764234e-04
8.60000000e-01	2.74964774e-03	1.94595541e-04
8.65000000e-01	2.74588026e-03	1.79071206e-04
8.70000000e-01	2.76736569e-03	1.72004793e-04
8.75000000e-01	2.73705882e-03	1.63593989e-04
8.80000000e-01	2.76730189e-03	1.59764107e-04
8.85000000e-01	2.79826451e-03	1.52798069e-04
8.90000000e-01	2.79687955e-03	1.49614604e-04
8.95000000e-01	2.76946463e-03	1.44028768e-04
9.00000000e-01	2.78300291e-03	1.43277528e-04
9.05000000e-01	2.78477127e-03	1.37153638e-04
9.10000000e-01	2.80503823e-03	1.35426825e-04
9.15000000e-01	2.79261973e-03	1.32844877e-04
9.20000000e-01	2.86015511e-03	1.35861394e-04
9.25000000e-01	2.84112271e-03	1.29036864e-04
9.30000000e-01	2.83510519e-03	1.27399704e-04
9.35000000e-01	2.85896754e-03	1.26071290e-04
9.40000000e-01	2.85899131e-03	1.26484887e-04
9.45000000e-01	2.87091607e-03	1.23783353e-04
9.50000000e-01	2.85796328e-03	1.21519010e-04
9.55000000e-01	2.84534677e-03	1.18832458e-04
9.60000000e-01	2.86439693e-03	1.19764805e-04
9.65000000e-01	2.88541828e-03	1.18548543e-04
9.70000000e-01	2.85965757e-03	1.15719949e-04
9.75000000e-01	2.88207142e-03	1.15219802e-04
9.80000000e-01	2.89280724e-03	1.14659967e-04
9.85000000e-01	2.87095238e-03	1.13905459e-04
9.90000000e-01	2.91009483e-03	1.11974749e-04
9.95000000e-01	2.89065173e-03	1.10695298e-04
1.00000000e+00	2.90629505e-03	1.10762634e-04
1.00500000e+00	2.89329875e-03	1.10326243e-04
1.01000000e+00	2.91485463e-03	1.08745985e-04
1.01500000e+00	2.90614527e-03	1.07287803e-04
1.02000000e+00	2.87748546e-03	1.06361282e-04
1.02500000e+00	2.87430825e-03	1.04845579e-04
1.03000000e+00	2.88543123e-03	1.04972138e-04
1.03500000e+00	2.90128013e-03	1.03955993e-04
1.04000000e+00	2.87826311e-03	1.02391016e-04
1.04500000e+00	2.86085747e-03	1.02028297e-04
1.05000000e+00	2.87279685e-03	1.01752906e-04
1.05500000e+00	2.85454696e-03	9.94866527e-05
1.06000000e+00	2.84884246e-03	9.90774233e-05
1.06500000e+00	2.87090501e-03	9.99328286e-05
1.07000000e+00	2.86191155e-03	9.94551727e-05
1.07500000e+00	2.90831493e-03	1.00373429e-04
1.08000000e+00	2.90737672e-03	9.96872151e-05
1.08500000e+00	2.92124233e-03	1.00361935e-04
1.09000000e+00	2.90285228e-03	1.00095311e-04
1.09500000e+00	2.90280284e-03	9.83205427e-05
1.10000000e+00	2.93048868e-03	9.98011572e-05
1.10500000e+00	2.93610728e-03	1.00244225e-04
1.11000000e+00	2.90770016e-03	9.93983731e-05
1.11500000e+00	2.93872155e-03	9.98282374e-05
1.12000000e+00	2.95527102e-03	1.00726657e-04
1.12500000e+00	2.97038950e-03	1.01058406e-04
1.13000000e+00	2.97182036e-03	1.02258770e-04
1.13500000e+00	2.98291523e-03	1.01381450e-04
1.14000000e+00	2.99758549e-03	1.01734405e-04
1.14500000e+00	2.99220818e-03	1.02347716e-04
1.15000000e+00	2.99623654e-03	1.03012885e-04
1.15500000e+00	3.01456499e-03	1.02577662e-04
1.16000000e+00	3.02355199e-03	1.03182506e-04
1.16500000e+00	3.02079162e-03	1.02983855e-04
1.17000000e+00	3.02947360e-03	1.04624101e-04
1.17500000e+00	3.06484592e-03	1.04333314e-04
1.18000000e+00	3.05631387e-03	1.04482634e-04
1.18500000e+00	3.05838175e-03	1.04358792e-04
1.19000000e+00	3.05767245e-03	1.05563790e-04
1.19500000e+00	3.07903495e-03	1.04850609e-04
1.20000000e+00	3.08076550e-03	1.05599161e-04
1.20500000e+00	3.05987363e-03	1.04742042e-04
1.21000000e+00	3.08070462e-03	1.06736298e-04
1.21500000e+00	3.11660801e-03	1.06320677e-04
1.22000000e+00	3.07601624e-03	1.04958714e-04
1.22500000e+00	3.11245266e-03	1.06645014e-04
1.23000000e+00	3.11107569e-03	1.07402614e-04
1.23500000e+00	3.11801901e-03	1.06956974e-04
1.24000000e+00	3.12395023e-03	1.06635975e-04
1.24500000e+00	3.09575560e-03	1.06548557e-04
1.25000000e+00	3.12724352e-03	1.08196170e-04
1.25500000e+00	3.13118633e-03	1.06989274e-04
1.26000000e+00	3.13290891e-03	1.07636040e-04
1.26500000e+00	3.14144490e-03	1.07594287e-04
1.27000000e+00	3.13480605e-03	1.08979475e-04
1.27500000e+00	3.14481861e-03	1.08191806e-04
1.28000000e+00	3.16076390e-03	1.08103284e-04
1.28500000e+00	3.15410696e-03	1.08518178e-04
1.29000000e+00	3.14992969e-03	1.09373018e-04
1.29500000e+00	3.16655442e-03	1.08691606e-04
1.30000000e+00	3.15395922e-03	1.08096160e-04
1.30500000e+00	3.17715960e-03	1.09386854e-04
1.31000000e+00	3.16570848e-03	1.10310512e-04
1.31500000e+00	3.18089289e-03	1.09405357e-04
1.32000000e+00	3.16585587e-03	1.08758106e-04
1.32500000e+00	3.17964892e-03	1.09571244e-04
1.33000000e+00	3.19336230e-03	1.11339966e-04
1.33500000e+00	3.19455811e-03	1.09913110e-04
1.34000000e+00	3.18819511e-03	1.09734531e-04
1.34500000e+00	3.20886545e-03	1.10897984e-04
1.35000000e+00	3.20126429e-03	1.11746946e-04
1.35500000e+00	3.21743932e-03	1.10714872e-04
1.36000000e+00	3.19617198e-03	1.09770650e-04
1.36500000e+00	3.21746036e-03	1.10808895e-04
1.37000000e+00	3.22309845e-03	1.12818053e-04
1.37500000e+00	3.20938699e-03	1.10490936e-04
1.38000000e+00	3.22705796e-03	1.11354780e-04
1.38500000e+00	3.22337970e-03	1.11919012e-04
1.39000000e+00	3.23831239e-03	1.13186816e-04
1.39500000e+00	3.22331636e-03	1.10965598e-04
1.40000000e+00	3.23127952e-03	1.14503869e-04
1.40500000e+00	3.21565996e-03	1.22770211e-04
1.41000000e+00	3.19547911e-03	1.27604474e-04
1.41500000e+00	3.18799153e-03	1.32017396e-04
1.42000000e+00	3.16285831e-03	1.36389554e-04
1.42500000e+00	3.13738978e-03	1.39252015e-04
1.43000000e+00	3.12146872e-03	1.43751321e-04
1.43500000e+00	3.12980423e-03	1.48414431e-04
1.44000000e+00	3.08998294e-03	1.52283314e-04
1.44500000e+00	3.08878439e-03	1.56269041e-04
1.45000000e+00	3.15878041e-03	1.54501471e-04
1.45500000e+00	3.17391563e-03	1.39498287e-04
1.46000000e+00	3.13900773e-03	1.34709082e-04
1.46500000e+00	3.14765149e-03	1.32561777e-04
1.47000000e+00	3.17188238e-03	1.33410236e-04
1.47500000e+00	3.15479317e-03	1.28947189e-04
1.48000000e+00	3.14730256e-03	1.27138610e-04
1.48500000e+00	3.13922979e-03	1.26998431e-04
1.49000000e+00	3.14103514e-03	1.27311410e-04
1.49500000e+00	3.13684493e-03	1.24209821e-04
1.50000000e+00	3.13409283e-03	1.23743777e-04
1.50500000e+00	3.13485209e-03	1.24497062e-04
1.51000000e+00	3.14486253e-03	1.25033221e-04
1.51500000e+00	3.13435158e-03	1.22651382e-04
1.52000000e+00	3.15029170e-03	1.22871661e-04
1.52500000e+00	3.14886655e-03	1.22727581e-04
1.53000000e+00	3.12910864e-03	1.22760045e-04
1.53500000e+00	3.13315244e-03	1.19295397e-04
1.54000000e+00	3.13644129e-03	1.19333543e-04
1.54500000e+00	3.10759734e-03	1.17897366e-04
1.55000000e+00	3.10865774e-03	1.17648451e-04
1.55500000e+00	3.11434394e-03	1.15227756e-04
1.56000000e+00	3.08717224e-03	1.14499904e-04
1.56500000e+00	3.05680666e-03	1.12865362e-04
1.57000000e+00	3.05390923e-03	1.11901046e-04
1.57500000e+00	3.02396838e-03	1.08766135e-04
1.58000000e+00	3.03698619e-03	1.08969109e-04
1.58500000e+00	3.00383776e-03	1.07811993e-04
1.59000000e+00	3.01264115e-03	1.08172513e-04
1.59500000e+00	3.01775779e-03	1.06329290e-04
1.60000000e+00	2.99194691e-03	1.05346912e-04
1.60500000e+00	2.98147646e-03	1.05058621e-04
1.61000000e+00	2.98704174e-03	1.04755799e-04
1.61500000e+00	3.00557226e-03	1.04408722e-04
1.62000000e+00	2.96960805e-03	1.03639602e-04
1.62500000e+00	2.96106405e-03	1.04576980e-04
1.63000000e+00	2.97771376e-03	1.04069460e-04
1.63500000e+00	2.97523519e-03	1.03917372e-04
1.64000000e+00	2.97653574e-03	1.03986058e-04
1.64500000e+00	2.95309673e-03	1.04376873e-04
1.65000000e+00	2.98903126e-03	1.04506206e-04
1.65500000e+00	2.93816709e-03	1.02548552e-04
1.66000000e+00	2.93623942e-03	1.02644494e-04
1.66500000e+00	2.91526134e-03	1.03533518e-04
1.67000000e+00	2.93534931e-03	1.02203871e-04
1.67500000e+00	2.93495743e-03	1.02340435e-04
1.68000000e+00	2.90613183e-03	1.01666124e-04
1.68500000e+00	2.89720804e-03	1.03067562e-04
1.69000000e+00	2.92501934e-03	1.02076958e-04
1.69500000e+00	2.91386779e-03	1.01448632e-04
1.70000000e+00	2.86477652e-03	1.00920510e-04
1.70500000e+00	2.87145503e-03	1.01589827e-04
1.71000000e+00	2.86368733e-03	1.00090309e-04
1.71500000e+00	2.87719645e-03	1.00478244e-04
1.72000000e+00	2.87749366e-03	1.01222487e-04
1.72500000e+00	2.83498679e-03	1.00370310e-04
1.73000000e+00	2.83679923e-03	9.90756741e-05
1.73500000e+00	2.81043401e-03	9.84462552e-05
1.74000000e+00	2.83261291e-03	9.94445812e-05
1.74500000e+00	2.80190188e-03	9.95528221e-05
1.75000000e+00	2.79909793e-03	9.75301001e-05
1.75500000e+00	2.79744816e-03	9.80612255e-05
1.76000000e+00	2.78948004e-03	9.77573927e-05
1.76500000e+00	2.79289403e-03	9.91748147e-05
1.77000000e+00	2.75613341e-03	9.61855468e-05
1.77500000e+00	2.75565766e-03	9.64940932e-05
1.78000000e+00	2.75558897e-03	9.67775807e-05
1.78500000e+00	2.74455224e-03	9.74813786e-05
1.79000000e+00	2.76445332e-03	9.74958906e-05
1.79500000e+00	2.72932296e-03	9.55056305e-05
1.80000000e+00	2.72102676e-03	9.57729941e-05
1.80500000e+00	2.72351197e-03	9.64832762e-05
1.81000000e+00	2.71408780e-03	9.47709934e-05
1.81500000e+00	2.72015227e-03	9.49866761e-05
1.82000000e+00	2.69447793e-03	9.47747845e-05
1.82500000e+00	2.67348036e-03	9.45880352e-05
1.83000000e+00	2.68057056e-03	9.36806530e-05
1.83500000e+00	2.67468017e-03	9.35702311e-05
1.84000000e+00	2.67284695e-03	9.40672825e-05
1.84500000e+00	2.64516313e-03	9.36001269e-05
1.85000000e+00	2.65291721e-03	9.28576520e-05
1.85500000e+00	2.64311250e-03	9.25182774e-05
1.86000000e+00	2.60896839e-03	9.19238896e-05
1.86500000e+00	2.63513063e-03	9.30850843e-05
1.87000000e+00	2.61604670e-03	9.14287446e-05
1.87500000e+00	2.64798623e-03	9.34045641e-05
1.88000000e+00	2.74657604e-03	1.02543940e-04
1.88500000e+00	2.62659491e-03	9.42650325e-05
1.89000000e+00	2.57639771e-03	9.00235262e-05
1.89500000e+00	2.56812522e-03	9.01595205e-05
1.90000000e+00	2.58100065e-03	9.09004904e-05
1.90500000e+00	2.56035269e-03	9.02869704e-05
1.91000000e+00	2.57003336e-03	9.00541269e-05
1.91500000e+00	2.53405071e-03	8.88108969e-05
1.92000000e+00	2.53406051e-03	8.92853307e-05
1.92500000e+00	2.53705552e-03	8.95380110e-05
1.93000000e+00	2.52875998e-03	8.84179641e-05
1.93500000e+00	2.50479059e-03	8.77961194e-05
1.94000000e+00	2.50342594e-03	8.84873435e-05
1.94500000e+00	2.49661988e-03	8.79360533e-05
1.95000000e+00	2.50607407e-03	8.74853552e-05
1.95500000e+00	2.46912915e-03	8.66109243e-05
1.96000000e+00	2.47266596e-03	8.72524811e-05
1.96500000e+00	2.44593847e-03	8.63728444e-05
1.97000000e+00	2.45757089e-03	8.57252348e-05
1.97500000e+00	2.44684513e-03	8.59778846e-05
1.98000000e+00	2.44346728e-03	8.61298337e-05
1.98500000e+00	2.43218649e-03	8.59786100e-05
1.99000000e+00	2.41632767e-03	8.42854949e-05
1.99500000e+00	2.41786775e-03	8.47497751e-05
2.00000000e+00	2.40584533e-03	8.49222793e-05
2.00500000e+00	2.41470342e-03	8.53827541e-05
2.01000000e+00	2.40836294e-03	9.34633970e-05
2.01500000e+00	2.39074382e-03	9.84815948e-05
2.02000000e+00	2.35416328e-03	1.03487440e-04
2.02500000e+00	2.33615281e-03	1.06640627e-04
2.03000000e+00	2.32310212e-03	1.12391788e-04
2.03500000e+00	2.31741773e-03	1.17218360e-04
2.04000000e+00	2.30219638e-03	1.21415995e-04
2.04500000e+00	2.30231239e-03	1.27800218e-04
2.05000000e+00	2.27492540e-03	1.32893026e-04
2.05500000e+00	2.27834512e-03	1.30371620e-04
2.06000000e+00	2.35766407e-03	1.17141086e-04
2.06500000e+00	2.28382074e-03	1.08579141e-04
2.07000000e+00	2.33338195e-03	1.04928494e-04
2.07500000e+00	2.30885319e-03	1.01547877e-04
2.08000000e+00	2.28790573e-03	1.00424864e-04
2.08500000e+00	2.28690458e-03	9.94769113e-05
2.09000000e+00	2.27239883e-03	9.59278989e-05
2.09500000e+00	2.27491057e-03	9.50312992e-05
2.10000000e+00	2.27646657e-03	9.44149980e-05
2.10500000e+00	2.27924843e-03	9.42218034e-05
2.11000000e+00	2.27121383e-03	9.04856302e-05
2.11500000e+00	2.22788934e-03	8.78588857e-05
2.12000000e+00	2.21995715e-03	8.70874671e-05
2.12500000e+00	2.22811147e-03	8.70955519e-05
2.13000000e+00	2.18330201e-03	8.19208039e-05
2.13500000e+00	2.18015535e-03	8.08406707e-05
2.14000000e+00	2.16981712e-03	7.98009401e-05
2.14500000e+00	2.15153154e-03	7.92348698e-05
2.15000000e+00	2.12471871e-03	7.56773578e-05
2.15500000e+00	2.13727215e-03	7.62690632e-05
2.16000000e+00	2.11804344e-03	7.52260603e-05
2.16500000e+00	2.11534679e-03	7.57081721e-05
2.17000000e+00	2.12765575e-03	7.43074237e-05
2.17500000e+00	2.09433835e-03	7.33484101e-05
2.18000000e+00	2.09078887e-03	7.34024728e-05
2.18500000e+00	2.08619615e-03	7.35980847e-05
2.19000000e+00	2.07546620e-03	7.30454970e-05
2.19500000e+00	2.05766001e-03	7.19538757e-05
2.20000000e+00	2.04770608e-03	7.17944372e-05
2.20500000e+00	2.03425066e-03	7.15293170e-05
2.21000000e+00	2.02569046e-03	7.16062595e-05
2.21500000e+00	1.99103544e-03	6.96229399e-05
2.22000000e+00	1.99398713e-03	6.96353008e-05
2.22500000e+00	2.00277604e-03	7.05174299e-05
2.23000000e+00	1.96916678e-03	6.97889513e-05
2.23500000e+00	1.96450415e-03	6.86342293e-05
2.24000000e+00	1.96600728e-03	6.86737608e-05
2.24500000e+00	1.95328098e-03	6.87766074e-05
2.25000000e+00	1.94108459e-03	6.89539198e-05
2.25500000e+00	1.92982576e-03	6.72613451e-05
2.26000000e+00	1.89599296e-03	6.63174341e-05
2.26500000e+00	1.90044497e-03	6.67482599e-05
2.27000000e+00	1.88751568e-03	6.72856100e-05
2.27500000e+00	1.87020702e-03	6.52761215e-05
2.28000000e+00	1.84351375e-03	6.43449960e-05
2.28500000e+00	1.85249223e-03	6.51076167e-05
2.29000000e+00	1.83554586e-03	6.48683858e-05
2.29500000e+00	1.84435578e-03	6.49942598e-05
2.30000000e+00	1.81339663e-03	6.33050509e-05
2.30500000e+00	1.80300543e-03	6.30604650e-05
2.31000000e+00	1.78898646e-03	6.29458814e-05
2.31500000e+00	1.78619510e-03	6.32818271e-05
2.32000000e+00	1.77473665e-03	6.16632971e-05
2.32500000e+00	1.76280734e-03	6.18167009e-05
2.33000000e+00	1.75760244e-03	6.16939530e-05
2.33500000e+00	1.73877981e-03	6.17148277e-05
2.34000000e+00	1.74614051e-03	6.08087726e-05
2.34500000e+00	1.70716230e-03	5.95148793e-05
2.35000000e+00	1.71471052e-03	6.00086316e-05
2.35500000e+00	1.70290710e-03	6.03558336e-05
2.36000000e+00	1.67800608e-03	5.86914648e-05
2.36500000e+00	1.66312170e-03	5.81950707e-05
2.37000000e+00	1.66111355e-03	5.80033144e-05
2.37500000e+00	1.62849749e-03	5.73875797e-05
2.38000000e+00	1.65552068e-03	5.86330298e-05
2.38500000e+00	1.63721372e-03	5.71748356e-05
2.39000000e+00	1.63115983e-03	5.71635432e-05
2.39500000e+00	1.62106754e-03	5.71615239e-05
2.40000000e+00	1.60317223e-03	5.73043873e-05
2.40500000e+00	1.60099070e-03	5.60625793e-05
2.41000000e+00	1.58601067e-03	5.57185731e-05
2.41500000e+00	1.57629304e-03	5.54043139e-05
2.42000000e+00	1.58701680e-03	5.64967954e-05
2.42500000e+00	1.57194425e-03	5.58879462e-05
2.43000000e+00	1.55932421e-03	5.49289313e-05
2.43500000e+00	1.54711617e-03	5.46631299e-05
2.44000000e+00	1.52832005e-03	5.41934598e-05
2.44500000e+00	1.52539969e-03	5.47743166e-05
2.45000000e+00	1.52702848e-03	5.38095299e-05
2.45500000e+00	1.49072418e-03	5.26972507e-05
2.46000000e+00	1.51527819e-03	5.37918543e-05
2.46500000e+00	1.46428470e-03	5.26784852e-05
2.47000000e+00	1.48896056e-03	5.29834696e-05
2.47500000e+00	1.46460197e-03	5.17944443e-05
2.48000000e+00	1.46176387e-03	5.21773796e-05
2.48500000e+00	1.46879902e-03	5.24244683e-05
2.49000000e+00	1.43356954e-03	5.18482618e-05
2.49500000e+00	1.42322899e-03	5.05190899e-05
2.50000000e+00	1.43041463e-03	5.09318101e-05
2.50500000e+00	1.43556605e-03	5.13814498e-05
2.51000000e+00	1.40043104e-03	5.04411940e-05
2.51500000e+00	1.41868580e-03	5.11836067e-05
2.52000000e+00	1.41478268e-03	5.06458603e-05
2.52500000e+00	1.38774512e-03	4.99134618e-05
2.53000000e+00	1.38272232e-03	5.01681690e-05
2.53500000e+00	1.36821203e-03	5.01527041e-05
2.54000000e+00	1.36230522e-03	4.91930900e-05
2.54500000e+00	1.35509819e-03	4.91606590e-05
2.55000000e+00	1.35765618e-03	4.94925478e-05
2.55500000e+00	1.32797370e-03	4.87651874e-05
2.56000000e+00	1.35665629e-03	5.01575143e-05
2.56500000e+00	1.31868570e-03	4.82820515e-05
2.57000000e+00	1.32708177e-03	4.87565272e-05
2.57500000e+00	1.33064631e-03	4.90662520e-05
2.58000000e+00	1.30170617e-03	4.87688486e-05
2.58500000e+00	1.31804213e-03	4.89724322e-05
2.59000000e+00	1.29743712e-03	4.80410672e-05
2.59500000e+00	1.30902921e-03	4.87564436e-05
2.60000000e+00	1.28556445e-03	4.81523768e-05
2.60500000e+00	1.30039330e-03	4.97753727e-05
2.61000000e+00	1.30748472e-03	5.70730193e-05
2.61500000e+00	1.28074636e-03	6.19267456e-05
2.62000000e+00	1.25214930e-03	6.64228405e-05
2.62500000e+00	1.25137577e-03	7.19783489e-05
2.63000000e+00	1.23338841e-03	7.85400023e-05
2.63500000e+00	1.25504783e-03	8.85122814e-05
2.64000000e+00	1.27278126e-03	9.90232412e-05
2.64500000e+00	1.27427064e-03	1.05777571e-04
2.65000000e+00	1.24650516e-03	1.09704826e-04
2.65500000e+00	1.22893253e-03	1.15609188e-04
2.66000000e+00	1.20502706e-03	1.21760543e-04
2.66500000e+00	1.19920379e-03	1.36701567e-04
2.67000000e+00	1.23367502e-03	1.52352996e-04
2.67500000e+00	1.20287916e-03	1.73844290e-04
2.68000000e+00	1.20840388e-03	2.01439993e-04
2.68500000e+00	1.23711690e-03	2.73146843e-04
2.69000000e+00	1.29277641e-03	4.60321286e-04
2.69500000e+00	0.00000000e+00	0.00000000e+00
2.70000000e+00	0.00000000e+00	0.00000000e+00
