% Filename : WEC7_00039_00040.h5
% Date & Time : 30-Oct-2025 17:49:39
% X-ray Energy (keV) : 13.30001
% Exposure Time (s) : 0.500
% Photodiode Value : 141785.000
% I0 of Sample : 0
% I0 of Standard : 1
% 
% q(A^-1)   I(q)    I(q)_SE
8.40000000e-01	0.00000000e+00	0.00000000e+00
8.45000000e-01	2.88770194e-03	5.06168066e-04
8.50000000e-01	2.70707450e-03	2.51052935e-04
8.55000000e-01	2.63188859e-03	2.15367296e-04
8.60000000e-01	2.64332137e-03	1.86903651e-04
8.65000000e-01	2.60703338e-03	1.69930378e-04
8.70000000e-01	2.64559828e-03	1.64370298e-04
8.75000000e-01	2.62391988e-03	1.56999632e-04
8.80000000e-01	2.63342577e-03	1.52335647e-04
8.85000000e-01	2.66404399e-03	1.45713404e-04
8.90000000e-01	2.63096346e-03	1.40797238e-04
8.95000000e-01	2.66880330e-03	1.38690525e-04
9.00000000e-01	2.66940200e-03	1.37430075e-04
9.05000000e-01	2.66314606e-03	1.30995434e-04
9.10000000e-01	2.69980728e-03	1.30556829e-04
9.15000000e-01	2.70707043e-03	1.28791995e-04
9.20000000e-01	2.68367062e-03	1.27405791e-04
9.25000000e-01	2.70226229e-03	1.22871442e-04
9.30000000e-01	2.69619126e-03	1.21352616e-04
9.35000000e-01	2.70476521e-03	1.19417297e-04
9.40000000e-01	2.72914392e-03	1.20910601e-04
9.45000000e-01	2.72822009e-03	1.17780946e-04
9.50000000e-01	2.73786535e-03	1.16572876e-04
9.55000000e-01	2.74485834e-03	1.14684811e-04
9.60000000e-01	2.74905936e-03	1.15047834e-04
9.65000000e-01	2.75133985e-03	1.13187336e-04
9.70000000e-01	2.76087275e-03	1.11688166e-04
9.75000000e-01	2.73777775e-03	1.09535256e-04
9.80000000e-01	2.73005079e-03	1.08251171e-04
9.85000000e-01	2.74835398e-03	1.09078959e-04
9.90000000e-01	2.75205071e-03	1.05857758e-04
9.95000000e-01	2.77238878e-03	1.06196559e-04
1.00000000e+00	2.78881690e-03	1.06322347e-04
1.00500000e+00	2.79196363e-03	1.06509982e-04
1.01000000e+00	2.76884347e-03	1.03437902e-04
1.01500000e+00	2.77656998e-03	1.02644555e-04
1.02000000e+00	2.77157940e-03	1.02512904e-04
1.02500000e+00	2.73899384e-03	1.00003959e-04
1.03000000e+00	2.75365377e-03	1.00192579e-04
1.03500000e+00	2.75998030e-03	9.89883348e-05
1.04000000e+00	2.75621469e-03	9.82142013e-05
1.04500000e+00	2.75378519e-03	9.82529459e-05
1.05000000e+00	2.71310068e-03	9.61382127e-05
1.05500000e+00	2.72816839e-03	9.52805648e-05
1.06000000e+00	2.74680145e-03	9.56936169e-05
1.06500000e+00	2.74311432e-03	9.55855861e-05
1.07000000e+00	2.74846942e-03	9.56610058e-05
1.07500000e+00	2.74861430e-03	9.49531622e-05
1.08000000e+00	2.77954101e-03	9.54433072e-05
1.08500000e+00	2.74810128e-03	9.43725421e-05
1.09000000e+00	2.78194654e-03	9.60889687e-05
1.09500000e+00	2.76788461e-03	9.38573252e-05
1.10000000e+00	2.81254995e-03	9.58689161e-05
1.10500000e+00	2.80740147e-03	9.61114699e-05
1.11000000e+00	2.78720063e-03	9.54521142e-05
1.11500000e+00	2.79051076e-03	9.49172940e-05
1.12000000e+00	2.82534092e-03	9.63507060e-05
1.12500000e+00	2.82465961e-03	9.61314741e-05
1.13000000e+00	2.81524841e-03	9.69211923e-05
1.13500000e+00	2.83590649e-03	9.65415535e-05
1.14000000e+00	2.85573778e-03	9.70324789e-05
1.14500000e+00	2.84548110e-03	9.73633586e-05
1.15000000e+00	2.83079115e-03	9.74769933e-05
1.15500000e+00	2.85598099e-03	9.72396496e-05
1.16000000e+00	2.87254127e-03	9.81022874e-05
1.16500000e+00	2.88438599e-03	9.83967097e-05
1.17000000e+00	2.87333151e-03	9.93327916e-05
1.17500000e+00	2.88157693e-03	9.81645688e-05
1.18000000e+00	2.90363567e-03	9.93279898e-05
1.18500000e+00	2.90075650e-03	9.90816198e-05
1.19000000e+00	2.89988337e-03	1.00098768e-04
1.19500000e+00	2.91480430e-03	9.94320775e-05
1.20000000e+00	2.89845180e-03	9.93111685e-05
1.20500000e+00	2.92631835e-03	1.00115724e-04
1.21000000e+00	2.91559450e-03	1.01080993e-04
1.21500000e+00	2.94343826e-03	1.00455539e-04
1.22000000e+00	2.94377441e-03	1.00641199e-04
1.22500000e+00	2.93847886e-03	1.00742935e-04
1.23000000e+00	2.94241422e-03	1.01661083e-04
1.23500000e+00	2.93490434e-03	1.00838891e-04
1.24000000e+00	2.93700867e-03	1.00342832e-04
1.24500000e+00	2.93777490e-03	1.01087295e-04
1.25000000e+00	2.94123204e-03	1.01852072e-04
1.25500000e+00	2.95893904e-03	1.01244157e-04
1.26000000e+00	2.94917654e-03	1.01586205e-04
1.26500000e+00	2.95377476e-03	1.01241405e-04
1.27000000e+00	2.95763804e-03	1.02932581e-04
1.27500000e+00	2.97307860e-03	1.02430066e-04
1.28000000e+00	2.95323932e-03	1.01130993e-04
1.28500000e+00	2.96380482e-03	1.02010087e-04
1.29000000e+00	2.95910248e-03	1.02820500e-04
1.29500000e+00	2.96768800e-03	1.02042802e-04
1.30000000e+00	2.94947338e-03	1.01238053e-04
1.30500000e+00	2.97082773e-03	1.02328979e-04
1.31000000e+00	2.98388244e-03	1.04029538e-04
1.31500000e+00	2.96545161e-03	1.02139230e-04
1.32000000e+00	2.99950356e-03	1.03124293e-04
1.32500000e+00	2.97834047e-03	1.02706034e-04
1.33000000e+00	2.95123955e-03	1.03041522e-04
1.33500000e+00	2.98380948e-03	1.02673546e-04
1.34000000e+00	2.98432567e-03	1.02941643e-04
1.34500000e+00	2.98172381e-03	1.03091849e-04
1.35000000e+00	2.96497703e-03	1.03531207e-04
1.35500000e+00	2.95689875e-03	1.01927575e-04
1.36000000e+00	2.94930568e-03	1.01423563e-04
1.36500000e+00	2.98121749e-03	1.02859324e-04
1.37000000e+00	2.96508966e-03	1.03863076e-04
1.37500000e+00	2.96351051e-03	1.02121076e-04
1.38000000e+00	2.96663410e-03	1.02513232e-04
1.38500000e+00	2.97078692e-03	1.03165305e-04
1.39000000e+00	2.94905938e-03	1.03125840e-04
1.39500000e+00	2.95642177e-03	1.01840615e-04
1.40000000e+00	2.97823031e-03	1.05707175e-04
1.40500000e+00	2.96913798e-03	1.13501503e-04
1.41000000e+00	2.94728729e-03	1.17949977e-04
1.41500000e+00	2.89241890e-03	1.19863289e-04
1.42000000e+00	2.91599980e-03	1.25742628e-04
1.42500000e+00	2.88984097e-03	1.28544745e-04
1.43000000e+00	2.84835976e-03	1.31283857e-04
1.43500000e+00	2.85215565e-03	1.35412458e-04
1.44000000e+00	2.84637367e-03	1.40578063e-04
1.44500000e+00	2.89012581e-03	1.46218092e-04
1.45000000e+00	2.92483491e-03	1.43444285e-04
1.45500000e+00	2.93497326e-03	1.29127181e-04
1.46000000e+00	2.90938809e-03	1.24901512e-04
1.46500000e+00	2.91425450e-03	1.23060449e-04
1.47000000e+00	2.89598541e-03	1.21889754e-04
1.47500000e+00	2.89567926e-03	1.18362104e-04
1.48000000e+00	2.90946317e-03	1.17718788e-04
1.48500000e+00	2.90177294e-03	1.17426418e-04
1.49000000e+00	2.91636571e-03	1.18293517e-04
1.49500000e+00	2.89676699e-03	1.14937117e-04
1.50000000e+00	2.91658439e-03	1.15294099e-04
1.50500000e+00	2.90259134e-03	1.15394467e-04
1.51000000e+00	2.91876305e-03	1.16182881e-04
1.51500000e+00	2.92952772e-03	1.14673997e-04
1.52000000e+00	2.93338982e-03	1.14573712e-04
1.52500000e+00	2.91967024e-03	1.13877952e-04
1.53000000e+00	2.91406828e-03	1.14284808e-04
1.53500000e+00	2.91181734e-03	1.10924772e-04
1.54000000e+00	2.93356301e-03	1.11638665e-04
1.54500000e+00	2.90908476e-03	1.10456395e-04
1.55000000e+00	2.88808886e-03	1.09338860e-04
1.55500000e+00	2.89025063e-03	1.06977167e-04
1.56000000e+00	2.86371771e-03	1.06212421e-04
1.56500000e+00	2.85234527e-03	1.05290398e-04
1.57000000e+00	2.86202171e-03	1.04866434e-04
1.57500000e+00	2.81222315e-03	1.01138113e-04
1.58000000e+00	2.83643296e-03	1.01809876e-04
1.58500000e+00	2.81421555e-03	1.01042956e-04
1.59000000e+00	2.81426626e-03	1.01139044e-04
1.59500000e+00	2.78848390e-03	9.82809095e-05
1.60000000e+00	2.78119051e-03	9.79945899e-05
1.60500000e+00	2.77143342e-03	9.77167531e-05
1.61000000e+00	2.78521518e-03	9.77583902e-05
1.61500000e+00	2.77340799e-03	9.64212079e-05
1.62000000e+00	2.75667149e-03	9.63120054e-05
1.62500000e+00	2.77409196e-03	9.79696053e-05
1.63000000e+00	2.75220979e-03	9.62311353e-05
1.63500000e+00	2.73439929e-03	9.55571639e-05
1.64000000e+00	2.74446864e-03	9.59532268e-05
1.64500000e+00	2.73219689e-03	9.66105510e-05
1.65000000e+00	2.74315990e-03	9.59439289e-05
1.65500000e+00	2.71110639e-03	9.47310412e-05
1.66000000e+00	2.72560079e-03	9.52737872e-05
1.66500000e+00	2.73076748e-03	9.71698777e-05
1.67000000e+00	2.73289839e-03	9.51398065e-05
1.67500000e+00	2.69207130e-03	9.39741002e-05
1.68000000e+00	2.68249764e-03	9.39128291e-05
1.68500000e+00	2.70313155e-03	9.62178172e-05
1.69000000e+00	2.68372667e-03	9.37537329e-05
1.69500000e+00	2.67264522e-03	9.31268908e-05
1.70000000e+00	2.66954800e-03	9.41304955e-05
1.70500000e+00	2.68763801e-03	9.51131336e-05
1.71000000e+00	2.69010556e-03	9.39834751e-05
1.71500000e+00	2.66210339e-03	9.29942928e-05
1.72000000e+00	2.63578051e-03	9.27924657e-05
1.72500000e+00	2.62550576e-03	9.30643149e-05
1.73000000e+00	2.62656098e-03	9.17814277e-05
1.73500000e+00	2.65784448e-03	9.31159368e-05
1.74000000e+00	2.64095429e-03	9.27741156e-05
1.74500000e+00	2.61584994e-03	9.29951087e-05
1.75000000e+00	2.61449312e-03	9.11707389e-05
1.75500000e+00	2.60507651e-03	9.13732847e-05
1.76000000e+00	2.60081128e-03	9.12689168e-05
1.76500000e+00	2.60983387e-03	9.27810896e-05
1.77000000e+00	2.57697094e-03	9.00098543e-05
1.77500000e+00	2.59372393e-03	9.08432549e-05
1.78000000e+00	2.56278764e-03	9.00721802e-05
1.78500000e+00	2.56785260e-03	9.11549284e-05
1.79000000e+00	2.55822263e-03	8.92733658e-05
1.79500000e+00	2.54755035e-03	8.92280592e-05
1.80000000e+00	2.55082905e-03	8.98310727e-05
1.80500000e+00	2.55082546e-03	9.04007118e-05
1.81000000e+00	2.54788337e-03	8.90026895e-05
1.81500000e+00	2.52556866e-03	8.82540826e-05
1.82000000e+00	2.52667733e-03	8.88888865e-05
1.82500000e+00	2.50380114e-03	8.87226245e-05
1.83000000e+00	2.50293038e-03	8.75906812e-05
1.83500000e+00	2.49318902e-03	8.73496539e-05
1.84000000e+00	2.47349027e-03	8.71323779e-05
1.84500000e+00	2.45899877e-03	8.70263376e-05
1.85000000e+00	2.47830322e-03	8.67104015e-05
1.85500000e+00	2.47998775e-03	8.68205998e-05
1.86000000e+00	2.44951900e-03	8.63830055e-05
1.86500000e+00	2.47737236e-03	8.76057363e-05
1.87000000e+00	2.43534786e-03	8.52080529e-05
1.87500000e+00	2.46310093e-03	8.63966194e-05
1.88000000e+00	2.43550804e-03	8.57386789e-05
1.88500000e+00	2.42561899e-03	8.59842020e-05
1.89000000e+00	2.43055754e-03	8.49533492e-05
1.89500000e+00	2.41012838e-03	8.46780006e-05
1.90000000e+00	2.39680123e-03	8.44839518e-05
1.90500000e+00	2.39756337e-03	8.45041303e-05
1.91000000e+00	2.40222575e-03	8.41393895e-05
1.91500000e+00	2.40857485e-03	8.44236048e-05
1.92000000e+00	2.37749011e-03	8.38029801e-05
1.92500000e+00	2.37799149e-03	8.39460360e-05
1.93000000e+00	2.37452938e-03	8.30390215e-05
1.93500000e+00	2.36754446e-03	8.30614723e-05
1.94000000e+00	2.35135230e-03	8.31489305e-05
1.94500000e+00	2.33146914e-03	8.22079280e-05
1.95000000e+00	2.31168607e-03	8.07310572e-05
1.95500000e+00	2.31287144e-03	8.11435076e-05
1.96000000e+00	2.31637616e-03	8.17870738e-05
1.96500000e+00	2.31163123e-03	8.16933035e-05
1.97000000e+00	2.31735056e-03	8.08022350e-05
1.97500000e+00	2.29852683e-03	8.07435591e-05
1.98000000e+00	2.29009580e-03	8.07385748e-05
1.98500000e+00	2.28361003e-03	8.07434476e-05
1.99000000e+00	2.28762099e-03	7.98811573e-05
1.99500000e+00	2.26362906e-03	7.93809998e-05
2.00000000e+00	2.26262144e-03	7.99212401e-05
2.00500000e+00	2.29677800e-03	8.12765415e-05
2.01000000e+00	2.26093783e-03	8.77461385e-05
2.01500000e+00	2.23669382e-03	9.22147667e-05
2.02000000e+00	2.19930660e-03	9.67195367e-05
2.02500000e+00	2.19315266e-03	1.00217255e-04
2.03000000e+00	2.20922296e-03	1.06926318e-04
2.03500000e+00	2.20141608e-03	1.11199255e-04
2.04000000e+00	2.15056730e-03	1.13512762e-04
2.04500000e+00	2.14276369e-03	1.19215431e-04
2.05000000e+00	2.15390393e-03	1.25742777e-04
2.05500000e+00	2.18827091e-03	1.25281342e-04
2.06000000e+00	2.18170741e-03	1.08734246e-04
2.06500000e+00	2.16533761e-03	1.02982440e-04
2.07000000e+00	2.15437309e-03	9.70339838e-05
2.07500000e+00	2.16395318e-03	9.52616691e-05
2.08000000e+00	2.14279358e-03	9.40794295e-05
2.08500000e+00	2.15401925e-03	9.38068500e-05
2.09000000e+00	2.14405667e-03	9.06132081e-05
2.09500000e+00	2.10943904e-03	8.82152376e-05
2.10000000e+00	2.13613102e-03	8.86013297e-05
2.10500000e+00	2.10972953e-03	8.72903003e-05
2.11000000e+00	2.10248375e-03	8.38618103e-05
2.11500000e+00	2.09448280e-03	8.26703488e-05
2.12000000e+00	2.07413411e-03	8.13808743e-05
2.12500000e+00	2.07835744e-03	8.13442246e-05
2.13000000e+00	2.04087301e-03	7.66383063e-05
2.13500000e+00	2.04128167e-03	7.57953705e-05
2.14000000e+00	2.04657296e-03	7.52669935e-05
2.14500000e+00	2.01869900e-03	7.43949418e-05
2.15000000e+00	1.98646535e-03	7.08646239e-05
2.15500000e+00	1.99194611e-03	7.11572025e-05
2.16000000e+00	1.97317687e-03	7.01759720e-05
2.16500000e+00	1.99259545e-03	7.13233304e-05
2.17000000e+00	1.96797721e-03	6.87980742e-05
2.17500000e+00	1.98070238e-03	6.93382469e-05
2.18000000e+00	1.93585653e-03	6.80534164e-05
2.18500000e+00	1.94400890e-03	6.85934894e-05
2.19000000e+00	1.93502825e-03	6.80629688e-05
2.19500000e+00	1.92038116e-03	6.71978746e-05
2.20000000e+00	1.90536623e-03	6.68342011e-05
2.20500000e+00	1.90132444e-03	6.69536478e-05
2.21000000e+00	1.89382158e-03	6.69331616e-05
2.21500000e+00	1.89098158e-03	6.61744284e-05
2.22000000e+00	1.87963972e-03	6.56178099e-05
2.22500000e+00	1.85241546e-03	6.53271497e-05
2.23000000e+00	1.85931389e-03	6.59207365e-05
2.23500000e+00	1.83037120e-03	6.40709412e-05
2.24000000e+00	1.82576841e-03	6.38571865e-05
2.24500000e+00	1.82764211e-03	6.43419650e-05
2.25000000e+00	1.80526636e-03	6.40835748e-05
2.25500000e+00	1.79940958e-03	6.27454916e-05
2.26000000e+00	1.77880948e-03	6.22608647e-05
2.26500000e+00	1.76467782e-03	6.20191638e-05
2.27000000e+00	1.74857022e-03	6.23704700e-05
2.27500000e+00	1.75921691e-03	6.14105995e-05
2.28000000e+00	1.73330921e-03	6.05670994e-05
2.28500000e+00	1.72441366e-03	6.06692411e-05
2.29000000e+00	1.69859898e-03	6.01231085e-05
2.29500000e+00	1.69431879e-03	5.96958758e-05
2.30000000e+00	1.69744652e-03	5.92721611e-05
2.30500000e+00	1.68246281e-03	5.88898466e-05
2.31000000e+00	1.66434572e-03	5.86039457e-05
2.31500000e+00	1.63690017e-03	5.82289820e-05
2.32000000e+00	1.64218793e-03	5.71245191e-05
2.32500000e+00	1.63564666e-03	5.73608072e-05
2.33000000e+00	1.62752896e-03	5.71768049e-05
2.33500000e+00	1.63167744e-03	5.79189726e-05
2.34000000e+00	1.62789351e-03	5.67822730e-05
2.34500000e+00	1.59345884e-03	5.56526985e-05
2.35000000e+00	1.57151566e-03	5.50397416e-05
2.35500000e+00	1.56627997e-03	5.55710491e-05
2.36000000e+00	1.56007065e-03	5.46736350e-05
2.36500000e+00	1.55458678e-03	5.43698614e-05
2.37000000e+00	1.55441298e-03	5.44321947e-05
2.37500000e+00	1.52299963e-03	5.37978859e-05
2.38000000e+00	1.52021431e-03	5.38754922e-05
2.38500000e+00	1.51172464e-03	5.28466173e-05
2.39000000e+00	1.50672265e-03	5.28772424e-05
2.39500000e+00	1.49573972e-03	5.27854914e-05
2.40000000e+00	1.48252177e-03	5.30385527e-05
2.40500000e+00	1.47515229e-03	5.17137766e-05
2.41000000e+00	1.47234730e-03	5.18098486e-05
2.41500000e+00	1.45776460e-03	5.13148183e-05
2.42000000e+00	1.44766361e-03	5.16875638e-05
2.42500000e+00	1.45004911e-03	5.16443345e-05
2.43000000e+00	1.43607831e-03	5.06971749e-05
2.43500000e+00	1.42923542e-03	5.05254714e-05
2.44000000e+00	1.41000751e-03	4.99928856e-05
2.44500000e+00	1.40362683e-03	5.03869578e-05
2.45000000e+00	1.39322845e-03	4.92036543e-05
2.45500000e+00	1.37385799e-03	4.86359111e-05
2.46000000e+00	1.38072020e-03	4.91070888e-05
2.46500000e+00	1.37486737e-03	4.95048954e-05
2.47000000e+00	1.36590573e-03	4.86470993e-05
2.47500000e+00	1.34296061e-03	4.75669346e-05
2.48000000e+00	1.32811046e-03	4.74966680e-05
2.48500000e+00	1.33767314e-03	4.77472307e-05
2.49000000e+00	1.33409796e-03	4.83759805e-05
2.49500000e+00	1.32808907e-03	4.72004438e-05
2.50000000e+00	1.30358998e-03	4.64363511e-05
2.50500000e+00	1.31941019e-03	4.72125892e-05
2.51000000e+00	1.29191648e-03	4.65356904e-05
2.51500000e+00	1.28413437e-03	4.63672542e-05
2.52000000e+00	1.30135190e-03	4.66302570e-05
2.52500000e+00	1.27252482e-03	4.57822212e-05
2.53000000e+00	1.27588227e-03	4.63579088e-05
2.53500000e+00	1.26896053e-03	4.66286045e-05
2.54000000e+00	1.26372773e-03	4.56469907e-05
2.54500000e+00	1.24498773e-03	4.51708837e-05
2.55000000e+00	1.23966390e-03	4.52365040e-05
2.55500000e+00	1.24519371e-03	4.58183076e-05
2.56000000e+00	1.23445619e-03	4.57019698e-05
2.56500000e+00	1.22231150e-03	4.47705858e-05
2.57000000e+00	1.21296171e-03	4.46622513e-05
2.57500000e+00	1.21868389e-03	4.50169949e-05
2.58000000e+00	1.19773961e-03	4.48780277e-05
2.58500000e+00	1.18517151e-03	4.41286264e-05
2.59000000e+00	1.19639352e-03	4.43637280e-05
2.59500000e+00	1.19477802e-03	4.44850075e-05
2.60000000e+00	1.18495242e-03	4.43834641e-05
2.60500000e+00	1.18006310e-03	4.53003004e-05
2.61000000e+00	1.16735296e-03	5.09861200e-05
2.61500000e+00	1.14986626e-03	5.56332176e-05
2.62000000e+00	1.15894596e-03	6.17200391e-05
2.62500000e+00	1.14208954e-03	6.56888600e-05
2.63000000e+00	1.14837200e-03	7.30741469e-05
2.63500000e+00	1.15372535e-03	8.13973218e-05
2.64000000e+00	1.14132125e-03	8.87625870e-05
2.64500000e+00	1.12594138e-03	9.35958136e-05
2.65000000e+00	1.12776551e-03	9.88531268e-05
2.65500000e+00	1.15272885e-03	1.08375773e-04
2.66000000e+00	1.12582373e-03	1.14067222e-04
2.66500000e+00	1.10519524e-03	1.25647773e-04
2.67000000e+00	1.11652536e-03	1.38896876e-04
2.67500000e+00	1.09423353e-03	1.57289127e-04
2.68000000e+00	1.11978959e-03	1.88359807e-04
2.68500000e+00	1.03246661e-03	2.28378238e-04
2.69000000e+00	1.07972882e-03	3.95390577e-04
2.69500000e+00	0.00000000e+00	0.00000000e+00
2.70000000e+00	0.00000000e+00	0.00000000e+00
