% Filename : WEC7_00039_00002.h5
% Date & Time : 30-Oct-2025 17:47:51
% X-ray Energy (keV) : 13.30001
% Exposure Time (s) : 0.500
% Photodiode Value : 141827.000
% I0 of Sample : 0
% I0 of Standard : 1
% 
% q(A^-1)   I(q)    I(q)_SE
8.40000000e-01	0.00000000e+00	0.00000000e+00
8.45000000e-01	2.85679342e-03	5.00433949e-04
8.50000000e-01	2.66221628e-03	2.46794294e-04
8.55000000e-01	2.65615301e-03	2.17336043e-04
8.60000000e-01	2.58254906e-03	1.82442924e-04
8.65000000e-01	2.56742494e-03	1.67332716e-04
8.70000000e-01	2.61814220e-03	1.62706264e-04
8.75000000e-01	2.61020351e-03	1.56122012e-04
8.80000000e-01	2.59859023e-03	1.50269962e-04
8.85000000e-01	2.64229890e-03	1.44282600e-04
8.90000000e-01	2.62292943e-03	1.40307765e-04
8.95000000e-01	2.62430229e-03	1.36391006e-04
9.00000000e-01	2.62302658e-03	1.35047454e-04
9.05000000e-01	2.65898723e-03	1.30994348e-04
9.10000000e-01	2.69148629e-03	1.30030473e-04
9.15000000e-01	2.68001223e-03	1.27562893e-04
9.20000000e-01	2.68619896e-03	1.27761483e-04
9.25000000e-01	2.65373051e-03	1.20595752e-04
9.30000000e-01	2.68995013e-03	1.20995587e-04
9.35000000e-01	2.68270269e-03	1.18316906e-04
9.40000000e-01	2.70407330e-03	1.19753304e-04
9.45000000e-01	2.70839880e-03	1.16833754e-04
9.50000000e-01	2.69864529e-03	1.14704649e-04
9.55000000e-01	2.71303624e-03	1.13359667e-04
9.60000000e-01	2.73232335e-03	1.14303002e-04
9.65000000e-01	2.74036149e-03	1.12705383e-04
9.70000000e-01	2.71497539e-03	1.09839342e-04
9.75000000e-01	2.72860666e-03	1.09134148e-04
9.80000000e-01	2.73802260e-03	1.08658708e-04
9.85000000e-01	2.73925571e-03	1.08697344e-04
9.90000000e-01	2.76422358e-03	1.06509628e-04
9.95000000e-01	2.75963205e-03	1.05720043e-04
1.00000000e+00	2.77673397e-03	1.05901320e-04
1.00500000e+00	2.74522200e-03	1.04783561e-04
1.01000000e+00	2.76280961e-03	1.03124160e-04
1.01500000e+00	2.73381821e-03	1.01162822e-04
1.02000000e+00	2.75459936e-03	1.01974958e-04
1.02500000e+00	2.74440173e-03	1.00253526e-04
1.03000000e+00	2.74313726e-03	9.98492795e-05
1.03500000e+00	2.72518793e-03	9.77784117e-05
1.04000000e+00	2.71783574e-03	9.70061904e-05
1.04500000e+00	2.70462671e-03	9.64519817e-05
1.05000000e+00	2.68925899e-03	9.53256498e-05
1.05500000e+00	2.68137931e-03	9.34860394e-05
1.06000000e+00	2.72288420e-03	9.49770813e-05
1.06500000e+00	2.72522806e-03	9.51105379e-05
1.07000000e+00	2.71544571e-03	9.44833369e-05
1.07500000e+00	2.70698758e-03	9.34538628e-05
1.08000000e+00	2.73471120e-03	9.39654678e-05
1.08500000e+00	2.73453279e-03	9.39741531e-05
1.09000000e+00	2.74752831e-03	9.49499337e-05
1.09500000e+00	2.75441097e-03	9.34662772e-05
1.10000000e+00	2.77350102e-03	9.45235850e-05
1.10500000e+00	2.76189796e-03	9.44828758e-05
1.11000000e+00	2.77256739e-03	9.48971527e-05
1.11500000e+00	2.76186465e-03	9.39416247e-05
1.12000000e+00	2.78490247e-03	9.50120938e-05
1.12500000e+00	2.79507214e-03	9.51247222e-05
1.13000000e+00	2.79243913e-03	9.62922848e-05
1.13500000e+00	2.81738145e-03	9.58578173e-05
1.14000000e+00	2.81918544e-03	9.56444047e-05
1.14500000e+00	2.81613689e-03	9.64383161e-05
1.15000000e+00	2.82154450e-03	9.72569402e-05
1.15500000e+00	2.84013308e-03	9.67665579e-05
1.16000000e+00	2.85182726e-03	9.74695288e-05
1.16500000e+00	2.84061594e-03	9.68991968e-05
1.17000000e+00	2.84534252e-03	9.82464841e-05
1.17500000e+00	2.83996405e-03	9.66920294e-05
1.18000000e+00	2.87831752e-03	9.84879605e-05
1.18500000e+00	2.86047303e-03	9.77409320e-05
1.19000000e+00	2.87171091e-03	9.91742783e-05
1.19500000e+00	2.89541071e-03	9.87795354e-05
1.20000000e+00	2.90052491e-03	9.95039622e-05
1.20500000e+00	2.87284363e-03	9.83878244e-05
1.21000000e+00	2.87768832e-03	9.97801860e-05
1.21500000e+00	2.88331690e-03	9.84117867e-05
1.22000000e+00	2.91267339e-03	9.95228876e-05
1.22500000e+00	2.89928013e-03	9.95330147e-05
1.23000000e+00	2.88680466e-03	9.97697137e-05
1.23500000e+00	2.91428773e-03	1.00039592e-04
1.24000000e+00	2.90689492e-03	9.93205699e-05
1.24500000e+00	2.91525680e-03	1.00428483e-04
1.25000000e+00	2.91197786e-03	1.00829384e-04
1.25500000e+00	2.92141616e-03	9.99385221e-05
1.26000000e+00	2.92840515e-03	1.00818809e-04
1.26500000e+00	2.92546208e-03	1.00379378e-04
1.27000000e+00	2.90195162e-03	1.00949382e-04
1.27500000e+00	2.92635061e-03	1.00904136e-04
1.28000000e+00	2.93192449e-03	1.00365183e-04
1.28500000e+00	2.91759161e-03	1.00510198e-04
1.29000000e+00	2.93746951e-03	1.02037329e-04
1.29500000e+00	2.93129272e-03	1.00737223e-04
1.30000000e+00	2.91818332e-03	1.00225382e-04
1.30500000e+00	2.91145173e-03	1.00300927e-04
1.31000000e+00	2.92603273e-03	1.01996143e-04
1.31500000e+00	2.92817949e-03	1.00812033e-04
1.32000000e+00	2.92620113e-03	1.00659058e-04
1.32500000e+00	2.94009732e-03	1.01401324e-04
1.33000000e+00	2.93172944e-03	1.02303302e-04
1.33500000e+00	2.93531506e-03	1.01054176e-04
1.34000000e+00	2.94139123e-03	1.01313672e-04
1.34500000e+00	2.94033711e-03	1.01687589e-04
1.35000000e+00	2.91445163e-03	1.01820758e-04
1.35500000e+00	2.92494392e-03	1.00785729e-04
1.36000000e+00	2.93407809e-03	1.00856518e-04
1.36500000e+00	2.93917653e-03	1.01407619e-04
1.37000000e+00	2.93238669e-03	1.02673172e-04
1.37500000e+00	2.91886545e-03	1.00675456e-04
1.38000000e+00	2.93512598e-03	1.01375268e-04
1.38500000e+00	2.94247252e-03	1.02257356e-04
1.39000000e+00	2.90687015e-03	1.01627235e-04
1.39500000e+00	2.90415344e-03	1.00176176e-04
1.40000000e+00	2.95174471e-03	1.04867230e-04
1.40500000e+00	2.91395364e-03	1.11358753e-04
1.41000000e+00	2.88126071e-03	1.15272710e-04
1.41500000e+00	2.87404490e-03	1.19208320e-04
1.42000000e+00	2.87525122e-03	1.24009315e-04
1.42500000e+00	2.84425429e-03	1.26474208e-04
1.43000000e+00	2.81625556e-03	1.29813424e-04
1.43500000e+00	2.83654831e-03	1.34798706e-04
1.44000000e+00	2.79776522e-03	1.38190916e-04
1.44500000e+00	2.81920455e-03	1.42718622e-04
1.45000000e+00	2.87099970e-03	1.40555302e-04
1.45500000e+00	2.86166901e-03	1.25929510e-04
1.46000000e+00	2.88496274e-03	1.23887350e-04
1.46500000e+00	2.86507650e-03	1.20927072e-04
1.47000000e+00	2.88101179e-03	1.21387470e-04
1.47500000e+00	2.85917941e-03	1.17015377e-04
1.48000000e+00	2.88111381e-03	1.16491609e-04
1.48500000e+00	2.87553431e-03	1.16456210e-04
1.49000000e+00	2.87632682e-03	1.16694849e-04
1.49500000e+00	2.87935744e-03	1.14109228e-04
1.50000000e+00	2.84320729e-03	1.12465880e-04
1.50500000e+00	2.87804989e-03	1.14461196e-04
1.51000000e+00	2.87028105e-03	1.14337368e-04
1.51500000e+00	2.88654499e-03	1.13084646e-04
1.52000000e+00	2.91954789e-03	1.13934142e-04
1.52500000e+00	2.88080650e-03	1.12258693e-04
1.53000000e+00	2.88498900e-03	1.13175106e-04
1.53500000e+00	2.87009942e-03	1.09394952e-04
1.54000000e+00	2.86993807e-03	1.09238223e-04
1.54500000e+00	2.86715981e-03	1.08837337e-04
1.55000000e+00	2.84749855e-03	1.07849074e-04
1.55500000e+00	2.85425087e-03	1.05725011e-04
1.56000000e+00	2.80086302e-03	1.03919291e-04
1.56500000e+00	2.81802639e-03	1.03978916e-04
1.57000000e+00	2.81091327e-03	1.03043478e-04
1.57500000e+00	2.80788793e-03	1.01044838e-04
1.58000000e+00	2.79247432e-03	1.00264361e-04
1.58500000e+00	2.78916861e-03	1.00132485e-04
1.59000000e+00	2.77800397e-03	9.98987041e-05
1.59500000e+00	2.75939287e-03	9.72892240e-05
1.60000000e+00	2.76292432e-03	9.73671279e-05
1.60500000e+00	2.76223894e-03	9.73470354e-05
1.61000000e+00	2.74639571e-03	9.63951036e-05
1.61500000e+00	2.75496609e-03	9.58997733e-05
1.62000000e+00	2.73684859e-03	9.55715079e-05
1.62500000e+00	2.72039431e-03	9.60783107e-05
1.63000000e+00	2.73577981e-03	9.56474037e-05
1.63500000e+00	2.70781120e-03	9.46623298e-05
1.64000000e+00	2.72910441e-03	9.53827159e-05
1.64500000e+00	2.69800187e-03	9.54094762e-05
1.65000000e+00	2.70090295e-03	9.44476604e-05
1.65500000e+00	2.71029631e-03	9.46741744e-05
1.66000000e+00	2.67945285e-03	9.36996666e-05
1.66500000e+00	2.71274556e-03	9.65089375e-05
1.67000000e+00	2.69541406e-03	9.38797348e-05
1.67500000e+00	2.67371465e-03	9.33405783e-05
1.68000000e+00	2.66196803e-03	9.32272883e-05
1.68500000e+00	2.65323685e-03	9.45035198e-05
1.69000000e+00	2.64869397e-03	9.25530805e-05
1.69500000e+00	2.65932896e-03	9.27031534e-05
1.70000000e+00	2.65580065e-03	9.36479306e-05
1.70500000e+00	2.64598851e-03	9.36540825e-05
1.71000000e+00	2.63130542e-03	9.19604078e-05
1.71500000e+00	2.61813801e-03	9.13947535e-05
1.72000000e+00	2.62045800e-03	9.23126248e-05
1.72500000e+00	2.58894686e-03	9.16613836e-05
1.73000000e+00	2.61307887e-03	9.13356649e-05
1.73500000e+00	2.60903697e-03	9.13775710e-05
1.74000000e+00	2.58586194e-03	9.08431224e-05
1.74500000e+00	2.59852483e-03	9.22982944e-05
1.75000000e+00	2.57885068e-03	8.99311349e-05
1.75500000e+00	2.58359371e-03	9.06257732e-05
1.76000000e+00	2.55799348e-03	8.97436909e-05
1.76500000e+00	2.56443680e-03	9.11009174e-05
1.77000000e+00	2.54904875e-03	8.90355754e-05
1.77500000e+00	2.55592530e-03	8.95889470e-05
1.78000000e+00	2.53784118e-03	8.91640214e-05
1.78500000e+00	2.54506486e-03	9.03468889e-05
1.79000000e+00	2.54492689e-03	8.88537216e-05
1.79500000e+00	2.53189859e-03	8.86680519e-05
1.80000000e+00	2.49116515e-03	8.77972509e-05
1.80500000e+00	2.48496867e-03	8.81019652e-05
1.81000000e+00	2.51075869e-03	8.77018453e-05
1.81500000e+00	2.47989128e-03	8.66786889e-05
1.82000000e+00	2.48741177e-03	8.75567972e-05
1.82500000e+00	2.47281233e-03	8.75729347e-05
1.83000000e+00	2.46527708e-03	8.62285229e-05
1.83500000e+00	2.47452964e-03	8.67376120e-05
1.84000000e+00	2.45320249e-03	8.64126802e-05
1.84500000e+00	2.44987225e-03	8.67957592e-05
1.85000000e+00	2.44715551e-03	8.56890149e-05
1.85500000e+00	2.44189676e-03	8.55303621e-05
1.86000000e+00	2.44114756e-03	8.61374587e-05
1.86500000e+00	2.42173063e-03	8.55736466e-05
1.87000000e+00	2.41101174e-03	8.42998626e-05
1.87500000e+00	2.39631275e-03	8.41002629e-05
1.88000000e+00	2.41323101e-03	8.50479993e-05
1.88500000e+00	2.38746704e-03	8.45786413e-05
1.89000000e+00	2.36812519e-03	8.27501051e-05
1.89500000e+00	2.38750529e-03	8.38945403e-05
1.90000000e+00	2.37964311e-03	8.38607782e-05
1.90500000e+00	2.38837995e-03	8.42837560e-05
1.91000000e+00	2.37237225e-03	8.30720741e-05
1.91500000e+00	2.35821493e-03	8.26610985e-05
1.92000000e+00	2.34224806e-03	8.25992711e-05
1.92500000e+00	2.35992069e-03	8.33029979e-05
1.93000000e+00	2.34706312e-03	8.20530765e-05
1.93500000e+00	2.30965474e-03	8.10225244e-05
1.94000000e+00	2.31325503e-03	8.17434257e-05
1.94500000e+00	2.30801707e-03	8.13571581e-05
1.95000000e+00	2.29046083e-03	8.00104215e-05
1.95500000e+00	2.30400836e-03	8.08611467e-05
1.96000000e+00	2.29026155e-03	8.09165174e-05
1.96500000e+00	2.29299447e-03	8.09518892e-05
1.97000000e+00	2.27774039e-03	7.94913251e-05
1.97500000e+00	2.26628412e-03	7.96134747e-05
1.98000000e+00	2.28411897e-03	8.05936513e-05
1.98500000e+00	2.24219554e-03	7.92942757e-05
1.99000000e+00	2.23723583e-03	7.80764648e-05
1.99500000e+00	2.22775305e-03	7.81873593e-05
2.00000000e+00	2.22449538e-03	7.86145709e-05
2.00500000e+00	2.26315409e-03	8.00975198e-05
2.01000000e+00	2.22624777e-03	8.64784877e-05
2.01500000e+00	2.18702632e-03	9.03060488e-05
2.02000000e+00	2.18471643e-03	9.60218673e-05
2.02500000e+00	2.17462269e-03	9.93998063e-05
2.03000000e+00	2.16351010e-03	1.04681133e-04
2.03500000e+00	2.14272345e-03	1.08322700e-04
2.04000000e+00	2.12558787e-03	1.12437638e-04
2.04500000e+00	2.10973930e-03	1.17231640e-04
2.05000000e+00	2.09318926e-03	1.22487129e-04
2.05500000e+00	2.10702844e-03	1.20628897e-04
2.06000000e+00	2.13696560e-03	1.06372434e-04
2.06500000e+00	2.13160697e-03	1.01438672e-04
2.07000000e+00	2.10591021e-03	9.48906549e-05
2.07500000e+00	2.09537529e-03	9.22862883e-05
2.08000000e+00	2.11805107e-03	9.30284188e-05
2.08500000e+00	2.09959401e-03	9.14402892e-05
2.09000000e+00	2.12767486e-03	8.98454171e-05
2.09500000e+00	2.12088569e-03	8.86523646e-05
2.10000000e+00	2.09475148e-03	8.69044068e-05
2.10500000e+00	2.08909865e-03	8.63447503e-05
2.11000000e+00	2.08683110e-03	8.32282930e-05
2.11500000e+00	2.07910150e-03	8.21074647e-05
2.12000000e+00	2.05440626e-03	8.06220600e-05
2.12500000e+00	2.02062441e-03	7.90685657e-05
2.13000000e+00	2.03114374e-03	7.63669785e-05
2.13500000e+00	2.02661390e-03	7.51628949e-05
2.14000000e+00	2.00500976e-03	7.37014940e-05
2.14500000e+00	1.97682009e-03	7.29195809e-05
2.15000000e+00	1.99368350e-03	7.12106189e-05
2.15500000e+00	1.94929210e-03	6.96180850e-05
2.16000000e+00	1.96512289e-03	6.99560139e-05
2.16500000e+00	1.95918510e-03	7.02868157e-05
2.17000000e+00	1.93835230e-03	6.76454842e-05
2.17500000e+00	1.93208658e-03	6.77424952e-05
2.18000000e+00	1.91376855e-03	6.72878938e-05
2.18500000e+00	1.92971876e-03	6.81532208e-05
2.19000000e+00	1.91734282e-03	6.74633215e-05
2.19500000e+00	1.88765207e-03	6.60774681e-05
2.20000000e+00	1.88748757e-03	6.63133843e-05
2.20500000e+00	1.87408363e-03	6.59832844e-05
2.21000000e+00	1.85612798e-03	6.56866566e-05
2.21500000e+00	1.86478509e-03	6.52381476e-05
2.22000000e+00	1.84415911e-03	6.44874385e-05
2.22500000e+00	1.82587650e-03	6.43894139e-05
2.23000000e+00	1.81080811e-03	6.42477545e-05
2.23500000e+00	1.81347209e-03	6.33818735e-05
2.24000000e+00	1.80130500e-03	6.30326129e-05
2.24500000e+00	1.77858644e-03	6.26667028e-05
2.25000000e+00	1.76202549e-03	6.26689767e-05
2.25500000e+00	1.76291116e-03	6.15485323e-05
2.26000000e+00	1.74915289e-03	6.12708195e-05
2.26500000e+00	1.73117042e-03	6.08698275e-05
2.27000000e+00	1.72797993e-03	6.15592796e-05
2.27500000e+00	1.71453100e-03	5.99057774e-05
2.28000000e+00	1.70351853e-03	5.96017198e-05
2.28500000e+00	1.69454388e-03	5.96303658e-05
2.29000000e+00	1.68024623e-03	5.94161308e-05
2.29500000e+00	1.67883496e-03	5.93000101e-05
2.30000000e+00	1.65021479e-03	5.76375401e-05
2.30500000e+00	1.66152043e-03	5.81712783e-05
2.31000000e+00	1.63942532e-03	5.77286904e-05
2.31500000e+00	1.61732644e-03	5.74618501e-05
2.32000000e+00	1.64205896e-03	5.71213689e-05
2.32500000e+00	1.62451717e-03	5.69960638e-05
2.33000000e+00	1.59900556e-03	5.62015377e-05
2.33500000e+00	1.58775184e-03	5.63715034e-05
2.34000000e+00	1.57096529e-03	5.48145426e-05
2.34500000e+00	1.57348563e-03	5.49498692e-05
2.35000000e+00	1.55471482e-03	5.45404886e-05
2.35500000e+00	1.55424962e-03	5.52734312e-05
2.36000000e+00	1.53818807e-03	5.38280345e-05
2.36500000e+00	1.52471220e-03	5.33594695e-05
2.37000000e+00	1.51838715e-03	5.31430425e-05
2.37500000e+00	1.51436540e-03	5.34433240e-05
2.38000000e+00	1.50048878e-03	5.31776821e-05
2.38500000e+00	1.49455372e-03	5.22850677e-05
2.39000000e+00	1.46383790e-03	5.13792676e-05
2.39500000e+00	1.46230583e-03	5.16285329e-05
2.40000000e+00	1.48050019e-03	5.29728544e-05
2.40500000e+00	1.47217026e-03	5.16082275e-05
2.41000000e+00	1.45534514e-03	5.12050838e-05
2.41500000e+00	1.43276338e-03	5.03874123e-05
2.42000000e+00	1.42386934e-03	5.07493414e-05
2.42500000e+00	1.42600107e-03	5.07486890e-05
2.43000000e+00	1.42737668e-03	5.03407806e-05
2.43500000e+00	1.40405477e-03	4.97424086e-05
2.44000000e+00	1.39679059e-03	4.95004473e-05
2.44500000e+00	1.38089791e-03	4.96686306e-05
2.45000000e+00	1.39194790e-03	4.90948099e-05
2.45500000e+00	1.37685140e-03	4.87162250e-05
2.46000000e+00	1.36296532e-03	4.83963196e-05
2.46500000e+00	1.36452872e-03	4.91020036e-05
2.47000000e+00	1.34971576e-03	4.81322011e-05
2.47500000e+00	1.34107814e-03	4.74896013e-05
2.48000000e+00	1.32747206e-03	4.74548908e-05
2.48500000e+00	1.31631055e-03	4.69708889e-05
2.49000000e+00	1.32234703e-03	4.78777013e-05
2.49500000e+00	1.30155896e-03	4.62572279e-05
2.50000000e+00	1.28667861e-03	4.58775313e-05
2.50500000e+00	1.29464803e-03	4.63885352e-05
2.51000000e+00	1.28723560e-03	4.64576673e-05
2.51500000e+00	1.26947067e-03	4.59132029e-05
2.52000000e+00	1.27727941e-03	4.57431125e-05
2.52500000e+00	1.26302116e-03	4.54371755e-05
2.53000000e+00	1.24822862e-03	4.53645018e-05
2.53500000e+00	1.24917828e-03	4.58983744e-05
2.54000000e+00	1.24783657e-03	4.51276991e-05
2.54500000e+00	1.22969454e-03	4.46590519e-05
2.55000000e+00	1.22502792e-03	4.47081830e-05
2.55500000e+00	1.22061564e-03	4.49102055e-05
2.56000000e+00	1.20672110e-03	4.46555249e-05
2.56500000e+00	1.19179198e-03	4.37299465e-05
2.57000000e+00	1.19122458e-03	4.38552798e-05
2.57500000e+00	1.20351316e-03	4.43715090e-05
2.58000000e+00	1.19571068e-03	4.49532751e-05
2.58500000e+00	1.16976404e-03	4.36000408e-05
2.59000000e+00	1.17692107e-03	4.35838365e-05
2.59500000e+00	1.18260609e-03	4.39744477e-05
2.60000000e+00	1.16320611e-03	4.36725834e-05
2.60500000e+00	1.14839669e-03	4.40768643e-05
2.61000000e+00	1.15549356e-03	5.04849007e-05
2.61500000e+00	1.14859046e-03	5.55644360e-05
2.62000000e+00	1.13902251e-03	6.06594022e-05
2.62500000e+00	1.13167909e-03	6.50452751e-05
2.63000000e+00	1.13771074e-03	7.23910903e-05
2.63500000e+00	1.12490478e-03	7.92427594e-05
2.64000000e+00	1.14030717e-03	8.84359745e-05
2.64500000e+00	1.10795512e-03	9.21728508e-05
2.65000000e+00	1.10569558e-03	9.70978398e-05
2.65500000e+00	1.08479058e-03	1.02488501e-04
2.66000000e+00	1.12391685e-03	1.13625623e-04
2.66500000e+00	1.12573433e-03	1.27899804e-04
2.67000000e+00	1.10049183e-03	1.35012673e-04
2.67500000e+00	1.07803143e-03	1.54818390e-04
2.68000000e+00	1.04959737e-03	1.74285119e-04
2.68500000e+00	1.08899979e-03	2.44183342e-04
2.69000000e+00	1.11426935e-03	4.03944845e-04
2.69500000e+00	0.00000000e+00	0.00000000e+00
2.70000000e+00	0.00000000e+00	0.00000000e+00
