% Filename : WEC8_00040_00040.h5
% Date & Time : 30-Oct-2025 17:53:07
% X-ray Energy (keV) : 13.30001
% Exposure Time (s) : 0.500
% Photodiode Value : 141716.000
% I0 of Sample : 0
% I0 of Standard : 1
% 
% q(A^-1)   I(q)    I(q)_SE
8.40000000e-01	0.00000000e+00	0.00000000e+00
8.45000000e-01	3.21520261e-03	5.63259698e-04
8.50000000e-01	3.03546947e-03	2.81920661e-04
8.55000000e-01	2.98810990e-03	2.43916598e-04
8.60000000e-01	2.95375504e-03	2.08817694e-04
8.65000000e-01	2.93864797e-03	1.91651586e-04
8.70000000e-01	2.91397865e-03	1.81009346e-04
8.75000000e-01	2.93988831e-03	1.75736883e-04
8.80000000e-01	2.93571569e-03	1.69466575e-04
8.85000000e-01	2.96417596e-03	1.62039124e-04
8.90000000e-01	2.95312148e-03	1.57707009e-04
8.95000000e-01	2.98331581e-03	1.54960440e-04
9.00000000e-01	2.95359674e-03	1.51997598e-04
9.05000000e-01	2.98808458e-03	1.46934819e-04
9.10000000e-01	2.96600871e-03	1.43177279e-04
9.15000000e-01	2.98108650e-03	1.41644069e-04
9.20000000e-01	3.00904776e-03	1.42874393e-04
9.25000000e-01	3.01865552e-03	1.37121144e-04
9.30000000e-01	3.02040069e-03	1.35822575e-04
9.35000000e-01	3.02014179e-03	1.33184905e-04
9.40000000e-01	3.02119440e-03	1.33659611e-04
9.45000000e-01	3.00507344e-03	1.29556856e-04
9.50000000e-01	3.02884021e-03	1.28782537e-04
9.55000000e-01	3.07236154e-03	1.28148600e-04
9.60000000e-01	3.04674123e-03	1.27258292e-04
9.65000000e-01	3.02678751e-03	1.24283804e-04
9.70000000e-01	3.05128530e-03	1.23283734e-04
9.75000000e-01	3.04938209e-03	1.21835292e-04
9.80000000e-01	3.06323226e-03	1.21400723e-04
9.85000000e-01	3.05674973e-03	1.21264805e-04
9.90000000e-01	3.07317146e-03	1.18179941e-04
9.95000000e-01	3.07234512e-03	1.17502802e-04
1.00000000e+00	3.08739058e-03	1.17577398e-04
1.00500000e+00	3.05440965e-03	1.16365198e-04
1.01000000e+00	3.07626057e-03	1.14756516e-04
1.01500000e+00	3.08549985e-03	1.13942211e-04
1.02000000e+00	3.06563131e-03	1.13216501e-04
1.02500000e+00	3.05702222e-03	1.11502858e-04
1.03000000e+00	3.07264244e-03	1.11685006e-04
1.03500000e+00	3.05224257e-03	1.09369741e-04
1.04000000e+00	3.06119338e-03	1.08964780e-04
1.04500000e+00	3.03435492e-03	1.07978823e-04
1.05000000e+00	3.02554463e-03	1.07043279e-04
1.05500000e+00	3.03741044e-03	1.05751117e-04
1.06000000e+00	3.03628241e-03	1.05455962e-04
1.06500000e+00	3.04184826e-03	1.05735722e-04
1.07000000e+00	3.06489463e-03	1.06388288e-04
1.07500000e+00	3.08461735e-03	1.06290076e-04
1.08000000e+00	3.09281857e-03	1.05979214e-04
1.08500000e+00	3.08293778e-03	1.05700645e-04
1.09000000e+00	3.08577824e-03	1.06380612e-04
1.09500000e+00	3.07352461e-03	1.03761674e-04
1.10000000e+00	3.11513065e-03	1.06020601e-04
1.10500000e+00	3.11001955e-03	1.06112030e-04
1.11000000e+00	3.11955847e-03	1.06642735e-04
1.11500000e+00	3.14933812e-03	1.06742481e-04
1.12000000e+00	3.15319324e-03	1.07374732e-04
1.12500000e+00	3.14882957e-03	1.07046583e-04
1.13000000e+00	3.13798380e-03	1.07908468e-04
1.13500000e+00	3.16994908e-03	1.07620982e-04
1.14000000e+00	3.19898049e-03	1.08427889e-04
1.14500000e+00	3.18414819e-03	1.08801564e-04
1.15000000e+00	3.18309792e-03	1.09290280e-04
1.15500000e+00	3.22105272e-03	1.09493109e-04
1.16000000e+00	3.22891318e-03	1.10045141e-04
1.16500000e+00	3.24740748e-03	1.10602446e-04
1.17000000e+00	3.24413124e-03	1.11986687e-04
1.17500000e+00	3.27494248e-03	1.11411578e-04
1.18000000e+00	3.27573557e-03	1.11808504e-04
1.18500000e+00	3.28174174e-03	1.11972729e-04
1.19000000e+00	3.28163386e-03	1.13119394e-04
1.19500000e+00	3.28150753e-03	1.11784220e-04
1.20000000e+00	3.29043400e-03	1.12587159e-04
1.20500000e+00	3.29393701e-03	1.12545887e-04
1.21000000e+00	3.33124726e-03	1.15359922e-04
1.21500000e+00	3.32603540e-03	1.13259416e-04
1.22000000e+00	3.34125465e-03	1.14007124e-04
1.22500000e+00	3.34434264e-03	1.14435234e-04
1.23000000e+00	3.31853760e-03	1.14407431e-04
1.23500000e+00	3.34482002e-03	1.14648002e-04
1.24000000e+00	3.36449972e-03	1.14765601e-04
1.24500000e+00	3.36990893e-03	1.15835807e-04
1.25000000e+00	3.38146722e-03	1.16887174e-04
1.25500000e+00	3.39988723e-03	1.16113516e-04
1.26000000e+00	3.39817666e-03	1.16644892e-04
1.26500000e+00	3.40323671e-03	1.16525847e-04
1.27000000e+00	3.41352799e-03	1.18524307e-04
1.27500000e+00	3.41835619e-03	1.17563675e-04
1.28000000e+00	3.40535229e-03	1.16330787e-04
1.28500000e+00	3.42757860e-03	1.17757534e-04
1.29000000e+00	3.42553913e-03	1.18784470e-04
1.29500000e+00	3.45395622e-03	1.18406663e-04
1.30000000e+00	3.45350975e-03	1.18275285e-04
1.30500000e+00	3.47666868e-03	1.19535470e-04
1.31000000e+00	3.48187586e-03	1.21184658e-04
1.31500000e+00	3.48270276e-03	1.19756244e-04
1.32000000e+00	3.47819567e-03	1.19367553e-04
1.32500000e+00	3.46666207e-03	1.19370633e-04
1.33000000e+00	3.50057117e-03	1.21988540e-04
1.33500000e+00	3.48833220e-03	1.19860563e-04
1.34000000e+00	3.53264011e-03	1.21582008e-04
1.34500000e+00	3.50809326e-03	1.21093930e-04
1.35000000e+00	3.53401858e-03	1.23213473e-04
1.35500000e+00	3.54673676e-03	1.21994870e-04
1.36000000e+00	3.55749295e-03	1.22137962e-04
1.36500000e+00	3.53886350e-03	1.21868474e-04
1.37000000e+00	3.55504641e-03	1.24269545e-04
1.37500000e+00	3.56650338e-03	1.22814135e-04
1.38000000e+00	3.55948334e-03	1.22760703e-04
1.38500000e+00	3.54143565e-03	1.22853906e-04
1.39000000e+00	3.55552141e-03	1.24104638e-04
1.39500000e+00	3.57205020e-03	1.22765678e-04
1.40000000e+00	3.59754757e-03	1.27531070e-04
1.40500000e+00	3.56402355e-03	1.35903078e-04
1.41000000e+00	3.51810849e-03	1.40475128e-04
1.41500000e+00	3.51513568e-03	1.45566622e-04
1.42000000e+00	3.49068501e-03	1.50162654e-04
1.42500000e+00	3.47015417e-03	1.53954564e-04
1.43000000e+00	3.45393425e-03	1.59125591e-04
1.43500000e+00	3.44427818e-03	1.63237259e-04
1.44000000e+00	3.42589372e-03	1.68724369e-04
1.44500000e+00	3.41712151e-03	1.72720120e-04
1.45000000e+00	3.48749875e-03	1.70379243e-04
1.45500000e+00	3.54393870e-03	1.55594019e-04
1.46000000e+00	3.50059425e-03	1.50096198e-04
1.46500000e+00	3.48601176e-03	1.46771397e-04
1.47000000e+00	3.48052238e-03	1.46285499e-04
1.47500000e+00	3.48955083e-03	1.42294943e-04
1.48000000e+00	3.48108016e-03	1.40569506e-04
1.48500000e+00	3.45788300e-03	1.39677403e-04
1.49000000e+00	3.46700165e-03	1.40451835e-04
1.49500000e+00	3.42857135e-03	1.35940008e-04
1.50000000e+00	3.40905836e-03	1.34642872e-04
1.50500000e+00	3.46211865e-03	1.37336775e-04
1.51000000e+00	3.48214405e-03	1.38445615e-04
1.51500000e+00	3.49592857e-03	1.36740961e-04
1.52000000e+00	3.47818140e-03	1.35621457e-04
1.52500000e+00	3.45291541e-03	1.34427419e-04
1.53000000e+00	3.43117907e-03	1.34478609e-04
1.53500000e+00	3.44845624e-03	1.31276707e-04
1.54000000e+00	3.40947644e-03	1.29565766e-04
1.54500000e+00	3.39266611e-03	1.28719556e-04
1.55000000e+00	3.41077979e-03	1.28940672e-04
1.55500000e+00	3.38443117e-03	1.25137817e-04
1.56000000e+00	3.35119401e-03	1.24320870e-04
1.56500000e+00	3.34879389e-03	1.23454483e-04
1.57000000e+00	3.31400591e-03	1.21342993e-04
1.57500000e+00	3.34631858e-03	1.20288354e-04
1.58000000e+00	3.30859915e-03	1.18643519e-04
1.58500000e+00	3.30822813e-03	1.18668636e-04
1.59000000e+00	3.29354403e-03	1.18122543e-04
1.59500000e+00	3.30649484e-03	1.16430944e-04
1.60000000e+00	3.27095748e-03	1.15058017e-04
1.60500000e+00	3.26571968e-03	1.14938383e-04
1.61000000e+00	3.27433285e-03	1.14717497e-04
1.61500000e+00	3.26428045e-03	1.13404124e-04
1.62000000e+00	3.28797674e-03	1.14698521e-04
1.62500000e+00	3.26819869e-03	1.15296323e-04
1.63000000e+00	3.29057285e-03	1.14839924e-04
1.63500000e+00	3.25162925e-03	1.13480943e-04
1.64000000e+00	3.26828098e-03	1.14141778e-04
1.64500000e+00	3.24143236e-03	1.14491971e-04
1.65000000e+00	3.23995182e-03	1.13097633e-04
1.65500000e+00	3.23301868e-03	1.12783820e-04
1.66000000e+00	3.23536022e-03	1.13030358e-04
1.66500000e+00	3.23614518e-03	1.14962088e-04
1.67000000e+00	3.21750691e-03	1.11944711e-04
1.67500000e+00	3.20934911e-03	1.11857895e-04
1.68000000e+00	3.20900531e-03	1.12241984e-04
1.68500000e+00	3.21489405e-03	1.14207695e-04
1.69000000e+00	3.19451020e-03	1.11385755e-04
1.69500000e+00	3.16634424e-03	1.10165928e-04
1.70000000e+00	3.18119120e-03	1.11996867e-04
1.70500000e+00	3.14355585e-03	1.11130429e-04
1.71000000e+00	3.15380465e-03	1.10036059e-04
1.71500000e+00	3.14558424e-03	1.09739692e-04
1.72000000e+00	3.13793371e-03	1.10339997e-04
1.72500000e+00	3.11875471e-03	1.10316165e-04
1.73000000e+00	3.11092569e-03	1.08567788e-04
1.73500000e+00	3.07995263e-03	1.07818826e-04
1.74000000e+00	3.11188613e-03	1.09203953e-04
1.74500000e+00	3.09630860e-03	1.09931688e-04
1.75000000e+00	3.07816710e-03	1.07148795e-04
1.75500000e+00	3.06393184e-03	1.07419776e-04
1.76000000e+00	3.04402540e-03	1.06594105e-04
1.76500000e+00	3.04558489e-03	1.08027723e-04
1.77000000e+00	3.03384280e-03	1.05826304e-04
1.77500000e+00	3.01658831e-03	1.05517726e-04
1.78000000e+00	3.00560739e-03	1.05470981e-04
1.78500000e+00	3.00067707e-03	1.06356959e-04
1.79000000e+00	3.04524234e-03	1.06818772e-04
1.79500000e+00	2.96944059e-03	1.03872769e-04
1.80000000e+00	2.96794001e-03	1.04485041e-04
1.80500000e+00	2.97739021e-03	1.05402728e-04
1.81000000e+00	2.96043468e-03	1.03371217e-04
1.81500000e+00	2.96375073e-03	1.03434112e-04
1.82000000e+00	2.97306049e-03	1.04453285e-04
1.82500000e+00	2.94948782e-03	1.04277110e-04
1.83000000e+00	2.92931805e-03	1.02270282e-04
1.83500000e+00	2.95053781e-03	1.03228531e-04
1.84000000e+00	2.91990673e-03	1.02729845e-04
1.84500000e+00	2.90031295e-03	1.02580232e-04
1.85000000e+00	2.91255278e-03	1.01762190e-04
1.85500000e+00	2.91311441e-03	1.01941430e-04
1.86000000e+00	2.87089185e-03	1.01195186e-04
1.86500000e+00	2.88044385e-03	1.01621011e-04
1.87000000e+00	2.87023994e-03	1.00232360e-04
1.87500000e+00	2.85736024e-03	1.00109466e-04
1.88000000e+00	2.86223410e-03	1.00793429e-04
1.88500000e+00	2.86002845e-03	1.01271109e-04
1.89000000e+00	2.85064774e-03	9.94875411e-05
1.89500000e+00	2.84073521e-03	9.96969096e-05
1.90000000e+00	2.81769121e-03	9.91792816e-05
1.90500000e+00	2.79051915e-03	9.82906219e-05
1.91000000e+00	2.80662548e-03	9.82230096e-05
1.91500000e+00	2.80447236e-03	9.81963196e-05
1.92000000e+00	2.80118570e-03	9.86603126e-05
1.92500000e+00	2.79380357e-03	9.84714161e-05
1.93000000e+00	2.76356656e-03	9.64428711e-05
1.93500000e+00	2.78040974e-03	9.80158226e-05
1.94000000e+00	2.78717698e-03	9.96145330e-05
1.94500000e+00	2.74285605e-03	9.65950289e-05
1.95000000e+00	2.74310897e-03	9.56690939e-05
1.95500000e+00	2.72977396e-03	9.56723886e-05
1.96000000e+00	2.70622731e-03	9.54638788e-05
1.96500000e+00	2.69249698e-03	9.49946356e-05
1.97000000e+00	2.70109795e-03	9.41539528e-05
1.97500000e+00	2.69171630e-03	9.44651313e-05
1.98000000e+00	2.70442179e-03	9.52703244e-05
1.98500000e+00	2.66385396e-03	9.40588585e-05
1.99000000e+00	2.66233414e-03	9.28187821e-05
1.99500000e+00	2.66531087e-03	9.33306084e-05
2.00000000e+00	2.66552075e-03	9.39843880e-05
2.00500000e+00	2.67490940e-03	9.44922242e-05
2.01000000e+00	2.65212954e-03	1.02785864e-04
2.01500000e+00	2.60957473e-03	1.07445164e-04
2.02000000e+00	2.57297980e-03	1.13002650e-04
2.02500000e+00	2.57642888e-03	1.17561731e-04
2.03000000e+00	2.56493849e-03	1.23881453e-04
2.03500000e+00	2.55390230e-03	1.29004557e-04
2.04000000e+00	2.55148388e-03	1.34558353e-04
2.04500000e+00	2.50577239e-03	1.39089633e-04
2.05000000e+00	2.54713247e-03	1.48342312e-04
2.05500000e+00	2.54945623e-03	1.45638541e-04
2.06000000e+00	2.58716252e-03	1.28531587e-04
2.06500000e+00	2.52837142e-03	1.19983531e-04
2.07000000e+00	2.53559731e-03	1.13878863e-04
2.07500000e+00	2.55375874e-03	1.12225719e-04
2.08000000e+00	2.50673135e-03	1.10023216e-04
2.08500000e+00	2.52640578e-03	1.09796877e-04
2.09000000e+00	2.49732211e-03	1.05456970e-04
2.09500000e+00	2.49204788e-03	1.04032623e-04
2.10000000e+00	2.49065133e-03	1.03218884e-04
2.10500000e+00	2.48123134e-03	1.02508840e-04
2.11000000e+00	2.48226755e-03	9.87433236e-05
2.11500000e+00	2.45414748e-03	9.68383586e-05
2.12000000e+00	2.43801331e-03	9.55748647e-05
2.12500000e+00	2.41694151e-03	9.44706971e-05
2.13000000e+00	2.41835872e-03	9.06772007e-05
2.13500000e+00	2.39531134e-03	8.87340094e-05
2.14000000e+00	2.36157501e-03	8.67351934e-05
2.14500000e+00	2.33317756e-03	8.58433938e-05
2.15000000e+00	2.36190278e-03	8.41843441e-05
2.15500000e+00	2.31668526e-03	8.25993431e-05
2.16000000e+00	2.33385304e-03	8.28102031e-05
2.16500000e+00	2.31309783e-03	8.26033998e-05
2.17000000e+00	2.30957692e-03	8.05203046e-05
2.17500000e+00	2.28271981e-03	7.98444498e-05
2.18000000e+00	2.27344755e-03	7.96732223e-05
2.18500000e+00	2.27128807e-03	8.00145270e-05
2.19000000e+00	2.27637116e-03	7.99726503e-05
2.19500000e+00	2.26182897e-03	7.90555490e-05
2.20000000e+00	2.24295455e-03	7.86250882e-05
2.20500000e+00	2.24629032e-03	7.88929751e-05
2.21000000e+00	2.21108256e-03	7.81262585e-05
2.21500000e+00	2.18141558e-03	7.61706776e-05
2.22000000e+00	2.18515354e-03	7.62374349e-05
2.22500000e+00	2.17247894e-03	7.64563037e-05
2.23000000e+00	2.16673508e-03	7.66369826e-05
2.23500000e+00	2.15533761e-03	7.52706715e-05
2.24000000e+00	2.15611776e-03	7.53441597e-05
2.24500000e+00	2.13133671e-03	7.49381220e-05
2.25000000e+00	2.13212763e-03	7.56282085e-05
2.25500000e+00	2.12194601e-03	7.38864231e-05
2.26000000e+00	2.10149020e-03	7.34199434e-05
2.26500000e+00	2.08210772e-03	7.29737410e-05
2.27000000e+00	2.07352113e-03	7.37480935e-05
2.27500000e+00	2.05530686e-03	7.15466675e-05
2.28000000e+00	2.03937311e-03	7.10854220e-05
2.28500000e+00	2.01498991e-03	7.07189508e-05
2.29000000e+00	2.03824292e-03	7.19006133e-05
2.29500000e+00	2.01187492e-03	7.08005466e-05
2.30000000e+00	1.99947794e-03	6.97150578e-05
2.30500000e+00	1.99714403e-03	6.97327458e-05
2.31000000e+00	1.99722289e-03	7.01500139e-05
2.31500000e+00	1.95938659e-03	6.93901618e-05
2.32000000e+00	1.96203742e-03	6.81023153e-05
2.32500000e+00	1.94389580e-03	6.80030626e-05
2.33000000e+00	1.91513663e-03	6.71576344e-05
2.33500000e+00	1.92200120e-03	6.81803713e-05
2.34000000e+00	1.91366372e-03	6.71317798e-05
2.34500000e+00	1.90671155e-03	6.64576466e-05
2.35000000e+00	1.88100506e-03	6.57571592e-05
2.35500000e+00	1.86028917e-03	6.58711910e-05
2.36000000e+00	1.85106225e-03	6.47168056e-05
2.36500000e+00	1.85573657e-03	6.47546669e-05
2.37000000e+00	1.83748693e-03	6.40775067e-05
2.37500000e+00	1.80721874e-03	6.36373949e-05
2.38000000e+00	1.80423907e-03	6.38847376e-05
2.38500000e+00	1.79523512e-03	6.26820557e-05
2.39000000e+00	1.77992938e-03	6.23268137e-05
2.39500000e+00	1.77912530e-03	6.25912882e-05
2.40000000e+00	1.76415434e-03	6.29476753e-05
2.40500000e+00	1.75720933e-03	6.14831023e-05
2.41000000e+00	1.75692208e-03	6.17152237e-05
2.41500000e+00	1.73526570e-03	6.09327536e-05
2.42000000e+00	1.72798391e-03	6.15166542e-05
2.42500000e+00	1.75307513e-03	6.22824668e-05
2.43000000e+00	1.73393659e-03	6.10530141e-05
2.43500000e+00	1.70838089e-03	6.03654608e-05
2.44000000e+00	1.69066302e-03	5.98165128e-05
2.44500000e+00	1.69837524e-03	6.09382845e-05
2.45000000e+00	1.67066377e-03	5.88748404e-05
2.45500000e+00	1.66634112e-03	5.88971446e-05
2.46000000e+00	1.64511794e-03	5.83955792e-05
2.46500000e+00	1.64154896e-03	5.89540810e-05
2.47000000e+00	1.62832616e-03	5.79350099e-05
2.47500000e+00	1.62793745e-03	5.75499507e-05
2.48000000e+00	1.62101742e-03	5.78341179e-05
2.48500000e+00	1.60595608e-03	5.73088530e-05
2.49000000e+00	1.60338328e-03	5.80319218e-05
2.49500000e+00	1.58315482e-03	5.61821310e-05
2.50000000e+00	1.57928299e-03	5.61964256e-05
2.50500000e+00	1.56942577e-03	5.61494960e-05
2.51000000e+00	1.55727308e-03	5.60734594e-05
2.51500000e+00	1.55819491e-03	5.63142971e-05
2.52000000e+00	1.56346827e-03	5.59896014e-05
2.52500000e+00	1.54986847e-03	5.57353907e-05
2.53000000e+00	1.53218898e-03	5.55683697e-05
2.53500000e+00	1.53389734e-03	5.65959081e-05
2.54000000e+00	1.51148020e-03	5.46427216e-05
2.54500000e+00	1.50083694e-03	5.44104972e-05
2.55000000e+00	1.50406246e-03	5.47048857e-05
2.55500000e+00	1.49690286e-03	5.49312576e-05
2.56000000e+00	1.48699440e-03	5.49604212e-05
2.56500000e+00	1.47893899e-03	5.41883319e-05
2.57000000e+00	1.48055406e-03	5.44177290e-05
2.57500000e+00	1.46345581e-03	5.39932307e-05
2.58000000e+00	1.45958421e-03	5.46399917e-05
2.58500000e+00	1.44298826e-03	5.36255168e-05
2.59000000e+00	1.44190372e-03	5.34903732e-05
2.59500000e+00	1.44347177e-03	5.37346587e-05
2.60000000e+00	1.43297331e-03	5.36732765e-05
2.60500000e+00	1.43024037e-03	5.47390809e-05
2.61000000e+00	1.40979819e-03	6.15284855e-05
2.61500000e+00	1.41362715e-03	6.85010753e-05
2.62000000e+00	1.38431856e-03	7.36735475e-05
2.62500000e+00	1.37082589e-03	7.88795630e-05
2.63000000e+00	1.36078326e-03	8.65924486e-05
2.63500000e+00	1.40088155e-03	9.83797174e-05
2.64000000e+00	1.41201179e-03	1.09246698e-04
2.64500000e+00	1.42565741e-03	1.17921509e-04
2.65000000e+00	1.44837558e-03	1.28933652e-04
2.65500000e+00	1.49294038e-03	1.45459480e-04
2.66000000e+00	1.41904712e-03	1.43679795e-04
2.66500000e+00	1.38219069e-03	1.56520354e-04
2.67000000e+00	1.38932228e-03	1.71046280e-04
2.67500000e+00	1.41600697e-03	2.04037054e-04
2.68000000e+00	1.34395037e-03	2.22605289e-04
2.68500000e+00	1.39308298e-03	3.09183373e-04
2.69000000e+00	1.50845692e-03	5.38579043e-04
2.69500000e+00	0.00000000e+00	0.00000000e+00
2.70000000e+00	0.00000000e+00	0.00000000e+00
