% Filename : WEC8_00040_00033.h5
% Date & Time : 30-Oct-2025 17:52:47
% X-ray Energy (keV) : 13.30001
% Exposure Time (s) : 0.500
% Photodiode Value : 141593.000
% I0 of Sample : 0
% I0 of Standard : 1
% 
% q(A^-1)   I(q)    I(q)_SE
8.40000000e-01	0.00000000e+00	0.00000000e+00
8.45000000e-01	3.07949951e-03	5.38499517e-04
8.50000000e-01	2.90978569e-03	2.69784469e-04
8.55000000e-01	2.80747142e-03	2.29172313e-04
8.60000000e-01	2.84927234e-03	2.01528730e-04
8.65000000e-01	2.84145143e-03	1.85138645e-04
8.70000000e-01	2.82030207e-03	1.75030242e-04
8.75000000e-01	2.86832791e-03	1.71493686e-04
8.80000000e-01	2.86090827e-03	1.65413112e-04
8.85000000e-01	2.86380758e-03	1.56362328e-04
8.90000000e-01	2.89172601e-03	1.54425888e-04
8.95000000e-01	2.89341419e-03	1.50189594e-04
9.00000000e-01	2.88161060e-03	1.48343852e-04
9.05000000e-01	2.90113649e-03	1.42759820e-04
9.10000000e-01	2.91828483e-03	1.40903695e-04
9.15000000e-01	2.92717467e-03	1.39167686e-04
9.20000000e-01	2.90276746e-03	1.37768018e-04
9.25000000e-01	2.91564983e-03	1.32360733e-04
9.30000000e-01	2.94843089e-03	1.32578194e-04
9.35000000e-01	2.97401758e-03	1.31164168e-04
9.40000000e-01	2.95786405e-03	1.30845226e-04
9.45000000e-01	2.94939455e-03	1.27118999e-04
9.50000000e-01	2.95988426e-03	1.25752266e-04
9.55000000e-01	2.97579900e-03	1.24258686e-04
9.60000000e-01	2.99195514e-03	1.25091308e-04
9.65000000e-01	2.97858654e-03	1.22349160e-04
9.70000000e-01	3.01920255e-03	1.22020270e-04
9.75000000e-01	3.00775505e-03	1.20146385e-04
9.80000000e-01	3.00430022e-03	1.19009636e-04
9.85000000e-01	3.00626836e-03	1.19237409e-04
9.90000000e-01	3.01621275e-03	1.15904451e-04
9.95000000e-01	3.03781293e-03	1.16318725e-04
1.00000000e+00	3.03145012e-03	1.15395382e-04
1.00500000e+00	3.03149182e-03	1.15455927e-04
1.01000000e+00	3.04022827e-03	1.13331102e-04
1.01500000e+00	3.04164898e-03	1.12288911e-04
1.02000000e+00	3.03481519e-03	1.12016742e-04
1.02500000e+00	3.00332120e-03	1.09416167e-04
1.03000000e+00	3.01005108e-03	1.09315016e-04
1.03500000e+00	3.04364010e-03	1.08849841e-04
1.04000000e+00	3.00562524e-03	1.06931726e-04
1.04500000e+00	3.01271033e-03	1.07234840e-04
1.05000000e+00	3.00289378e-03	1.06139693e-04
1.05500000e+00	3.00916640e-03	1.04634014e-04
1.06000000e+00	3.01981753e-03	1.04850688e-04
1.06500000e+00	3.01586751e-03	1.04877238e-04
1.07000000e+00	3.01774053e-03	1.04666920e-04
1.07500000e+00	3.02791506e-03	1.04249902e-04
1.08000000e+00	3.05777086e-03	1.04688454e-04
1.08500000e+00	3.04535373e-03	1.04367467e-04
1.09000000e+00	3.05417842e-03	1.05193363e-04
1.09500000e+00	3.05424521e-03	1.03132308e-04
1.10000000e+00	3.05654760e-03	1.03995750e-04
1.10500000e+00	3.07889714e-03	1.05001624e-04
1.11000000e+00	3.08939214e-03	1.05551384e-04
1.11500000e+00	3.10634534e-03	1.05260912e-04
1.12000000e+00	3.09447360e-03	1.05318069e-04
1.12500000e+00	3.11550837e-03	1.05805279e-04
1.13000000e+00	3.13360755e-03	1.07624519e-04
1.13500000e+00	3.11723502e-03	1.05829398e-04
1.14000000e+00	3.14597220e-03	1.06563275e-04
1.14500000e+00	3.15972900e-03	1.08024357e-04
1.15000000e+00	3.17232322e-03	1.08979429e-04
1.15500000e+00	3.17399092e-03	1.07801826e-04
1.16000000e+00	3.20164785e-03	1.09088163e-04
1.16500000e+00	3.19158307e-03	1.08647090e-04
1.17000000e+00	3.20704211e-03	1.10570489e-04
1.17500000e+00	3.21910250e-03	1.09327575e-04
1.18000000e+00	3.22953795e-03	1.10222322e-04
1.18500000e+00	3.21314228e-03	1.09511871e-04
1.19000000e+00	3.24142260e-03	1.11712758e-04
1.19500000e+00	3.23604202e-03	1.10101046e-04
1.20000000e+00	3.26297238e-03	1.11624048e-04
1.20500000e+00	3.28517963e-03	1.12237628e-04
1.21000000e+00	3.33604841e-03	1.15429941e-04
1.21500000e+00	3.37591673e-03	1.15036371e-04
1.22000000e+00	3.35211153e-03	1.14358577e-04
1.22500000e+00	3.32858256e-03	1.13864657e-04
1.23000000e+00	3.33033059e-03	1.14886116e-04
1.23500000e+00	3.32267548e-03	1.13939701e-04
1.24000000e+00	3.33944040e-03	1.13996379e-04
1.24500000e+00	3.34977705e-03	1.15157129e-04
1.25000000e+00	3.34294339e-03	1.15505963e-04
1.25500000e+00	3.33357522e-03	1.13849239e-04
1.26000000e+00	3.35644289e-03	1.15318464e-04
1.26500000e+00	3.34946807e-03	1.14701735e-04
1.27000000e+00	3.33435835e-03	1.15877631e-04
1.27500000e+00	3.33640368e-03	1.14756311e-04
1.28000000e+00	3.36447819e-03	1.14990827e-04
1.28500000e+00	3.36629898e-03	1.15768390e-04
1.29000000e+00	3.34867016e-03	1.16058131e-04
1.29500000e+00	3.38103202e-03	1.16054495e-04
1.30000000e+00	3.37814814e-03	1.15702286e-04
1.30500000e+00	3.37483665e-03	1.16094022e-04
1.31000000e+00	3.39124592e-03	1.18035007e-04
1.31500000e+00	3.43672000e-03	1.18115388e-04
1.32000000e+00	3.40531526e-03	1.16902317e-04
1.32500000e+00	3.40296460e-03	1.17177163e-04
1.33000000e+00	3.41120359e-03	1.18847984e-04
1.33500000e+00	3.41912573e-03	1.17532106e-04
1.34000000e+00	3.44691803e-03	1.18620950e-04
1.34500000e+00	3.43537680e-03	1.18587444e-04
1.35000000e+00	3.42930627e-03	1.19613652e-04
1.35500000e+00	3.44347184e-03	1.18407701e-04
1.36000000e+00	3.42566461e-03	1.17512062e-04
1.36500000e+00	3.44545642e-03	1.18625464e-04
1.37000000e+00	3.44242545e-03	1.20314560e-04
1.37500000e+00	3.44413470e-03	1.18497460e-04
1.38000000e+00	3.45611389e-03	1.19271168e-04
1.38500000e+00	3.45276373e-03	1.19749660e-04
1.39000000e+00	3.47563790e-03	1.21339693e-04
1.39500000e+00	3.48385361e-03	1.19758092e-04
1.40000000e+00	3.55003860e-03	1.25832791e-04
1.40500000e+00	3.49095690e-03	1.33168265e-04
1.41000000e+00	3.49117929e-03	1.39378361e-04
1.41500000e+00	3.48461769e-03	1.44125034e-04
1.42000000e+00	3.51194494e-03	1.51125683e-04
1.42500000e+00	3.53321240e-03	1.56509829e-04
1.43000000e+00	3.53135240e-03	1.62378735e-04
1.43500000e+00	3.57031344e-03	1.69196168e-04
1.44000000e+00	3.59012102e-03	1.76567256e-04
1.44500000e+00	3.56382197e-03	1.79870824e-04
1.45000000e+00	3.68704459e-03	1.80196561e-04
1.45500000e+00	3.70933568e-03	1.62710343e-04
1.46000000e+00	3.68039522e-03	1.57647205e-04
1.46500000e+00	3.63140311e-03	1.52726412e-04
1.47000000e+00	3.64877534e-03	1.53418096e-04
1.47500000e+00	3.58366227e-03	1.46189419e-04
1.48000000e+00	3.54963085e-03	1.43252682e-04
1.48500000e+00	3.46160267e-03	1.39808960e-04
1.49000000e+00	3.48093849e-03	1.41020456e-04
1.49500000e+00	3.42934377e-03	1.35820570e-04
1.50000000e+00	3.44499314e-03	1.36003086e-04
1.50500000e+00	3.41602257e-03	1.35503448e-04
1.51000000e+00	3.43759427e-03	1.36776156e-04
1.51500000e+00	3.52440001e-03	1.37952525e-04
1.52000000e+00	3.49910309e-03	1.36546690e-04
1.52500000e+00	3.42264204e-03	1.33356902e-04
1.53000000e+00	3.37388965e-03	1.32218870e-04
1.53500000e+00	3.36156858e-03	1.27915337e-04
1.54000000e+00	3.36740596e-03	1.28098110e-04
1.54500000e+00	3.33583737e-03	1.26497396e-04
1.55000000e+00	3.33770065e-03	1.26318268e-04
1.55500000e+00	3.32036765e-03	1.22896570e-04
1.56000000e+00	3.32310992e-03	1.23180792e-04
1.56500000e+00	3.30331373e-03	1.21827644e-04
1.57000000e+00	3.25242168e-03	1.19042769e-04
1.57500000e+00	3.26626082e-03	1.17343285e-04
1.58000000e+00	3.25675252e-03	1.16714965e-04
1.58500000e+00	3.24426859e-03	1.16335012e-04
1.59000000e+00	3.23043289e-03	1.15868569e-04
1.59500000e+00	3.22217046e-03	1.13458389e-04
1.60000000e+00	3.23830913e-03	1.14006918e-04
1.60500000e+00	3.22008802e-03	1.13359718e-04
1.61000000e+00	3.23173745e-03	1.13316358e-04
1.61500000e+00	3.20559606e-03	1.11343701e-04
1.62000000e+00	3.17374003e-03	1.10729619e-04
1.62500000e+00	3.17915557e-03	1.12135467e-04
1.63000000e+00	3.18370990e-03	1.11137441e-04
1.63500000e+00	3.15976780e-03	1.10305261e-04
1.64000000e+00	3.15546485e-03	1.10244645e-04
1.64500000e+00	3.15273128e-03	1.11287813e-04
1.65000000e+00	3.16077109e-03	1.10416438e-04
1.65500000e+00	3.13738439e-03	1.09458474e-04
1.66000000e+00	3.11791498e-03	1.08903692e-04
1.66500000e+00	3.12638238e-03	1.11070026e-04
1.67000000e+00	3.11243788e-03	1.08269593e-04
1.67500000e+00	3.10300621e-03	1.08174269e-04
1.68000000e+00	3.11793767e-03	1.09069903e-04
1.68500000e+00	3.09472806e-03	1.10079486e-04
1.69000000e+00	3.08041667e-03	1.07486115e-04
1.69500000e+00	3.06495655e-03	1.06667450e-04
1.70000000e+00	3.04235651e-03	1.07116263e-04
1.70500000e+00	3.03524342e-03	1.07379926e-04
1.71000000e+00	3.04239307e-03	1.06227539e-04
1.71500000e+00	3.03636845e-03	1.05958175e-04
1.72000000e+00	3.04013759e-03	1.06903562e-04
1.72500000e+00	2.98199141e-03	1.05530752e-04
1.73000000e+00	2.98722065e-03	1.04271658e-04
1.73500000e+00	3.00345284e-03	1.05086207e-04
1.74000000e+00	2.98044087e-03	1.04664590e-04
1.74500000e+00	2.97347215e-03	1.05616928e-04
1.75000000e+00	2.97269907e-03	1.03535154e-04
1.75500000e+00	2.97507031e-03	1.04287230e-04
1.76000000e+00	2.93562103e-03	1.02882256e-04
1.76500000e+00	2.93083200e-03	1.04072309e-04
1.77000000e+00	2.93449616e-03	1.02395387e-04
1.77500000e+00	2.93670494e-03	1.02805787e-04
1.78000000e+00	2.91756635e-03	1.02385007e-04
1.78500000e+00	2.95022518e-03	1.04905386e-04
1.79000000e+00	2.97620552e-03	1.07047476e-04
1.79500000e+00	2.91442195e-03	1.02004597e-04
1.80000000e+00	2.90011088e-03	1.02084671e-04
1.80500000e+00	2.88382023e-03	1.02152415e-04
1.81000000e+00	2.88694597e-03	1.00743153e-04
1.81500000e+00	2.89087277e-03	1.01055540e-04
1.82000000e+00	2.89181430e-03	1.01629757e-04
1.82500000e+00	2.90071711e-03	1.02609104e-04
1.83000000e+00	2.90044938e-03	1.01300096e-04
1.83500000e+00	2.89657437e-03	1.01354382e-04
1.84000000e+00	2.87567843e-03	1.01151661e-04
1.84500000e+00	2.86982338e-03	1.01532663e-04
1.85000000e+00	2.86541665e-03	1.00119952e-04
1.85500000e+00	2.82587879e-03	9.88738769e-05
1.86000000e+00	2.83178094e-03	9.97438044e-05
1.86500000e+00	2.82651515e-03	9.98483685e-05
1.87000000e+00	2.80730931e-03	9.80746264e-05
1.87500000e+00	2.82870901e-03	9.91405131e-05
1.88000000e+00	2.79825208e-03	9.84093180e-05
1.88500000e+00	2.79441729e-03	9.89709309e-05
1.89000000e+00	2.79947422e-03	9.77257507e-05
1.89500000e+00	2.80321527e-03	9.83695006e-05
1.90000000e+00	2.78949520e-03	9.81645221e-05
1.90500000e+00	2.78631287e-03	9.81380173e-05
1.91000000e+00	2.76622503e-03	9.67261424e-05
1.91500000e+00	2.76390027e-03	9.68325251e-05
1.92000000e+00	2.77073792e-03	9.75389229e-05
1.92500000e+00	2.77438489e-03	9.77708132e-05
1.93000000e+00	2.74954391e-03	9.59990021e-05
1.93500000e+00	2.75979444e-03	9.67037998e-05
1.94000000e+00	2.78149680e-03	9.84232294e-05
1.94500000e+00	2.77001911e-03	9.75849569e-05
1.95000000e+00	2.74326345e-03	9.57414855e-05
1.95500000e+00	2.77878501e-03	9.72787978e-05
1.96000000e+00	2.75673364e-03	9.71073282e-05
1.96500000e+00	2.79796890e-03	9.87173984e-05
1.97000000e+00	2.75871483e-03	9.61062219e-05
1.97500000e+00	2.75220569e-03	9.65182919e-05
1.98000000e+00	2.72686451e-03	9.60511917e-05
1.98500000e+00	2.73641093e-03	9.65535619e-05
1.99000000e+00	2.72027939e-03	9.48059001e-05
1.99500000e+00	2.69922597e-03	9.45230850e-05
2.00000000e+00	2.67430488e-03	9.42340337e-05
2.00500000e+00	2.70080850e-03	9.54089898e-05
2.01000000e+00	2.65755444e-03	1.03141467e-04
2.01500000e+00	2.62537203e-03	1.08109987e-04
2.02000000e+00	2.62075630e-03	1.15014131e-04
2.02500000e+00	2.61140021e-03	1.19171313e-04
2.03000000e+00	2.57205743e-03	1.24322713e-04
2.03500000e+00	2.54624054e-03	1.28546671e-04
2.04000000e+00	2.54569294e-03	1.34418246e-04
2.04500000e+00	2.53950913e-03	1.40918244e-04
2.05000000e+00	2.54364355e-03	1.48152598e-04
2.05500000e+00	2.57319233e-03	1.46972359e-04
2.06000000e+00	2.56480162e-03	1.27434786e-04
2.06500000e+00	2.57270482e-03	1.22012259e-04
2.07000000e+00	2.57725893e-03	1.16170343e-04
2.07500000e+00	2.71380226e-03	1.35443982e-04
2.08000000e+00	2.63877307e-03	1.20335211e-04
2.08500000e+00	2.52794906e-03	1.09918900e-04
2.09000000e+00	2.51745785e-03	1.06215817e-04
2.09500000e+00	2.53540290e-03	1.05744825e-04
2.10000000e+00	2.53225507e-03	1.04954360e-04
2.10500000e+00	2.51888527e-03	1.04089524e-04
2.11000000e+00	2.48391075e-03	9.88980229e-05
2.11500000e+00	2.47886926e-03	9.76759484e-05
2.12000000e+00	2.46824282e-03	9.67412165e-05
2.12500000e+00	2.43383108e-03	9.51187077e-05
2.13000000e+00	2.43747007e-03	9.13746074e-05
2.13500000e+00	2.40813336e-03	8.92338317e-05
2.14000000e+00	2.39560549e-03	8.80380382e-05
2.14500000e+00	2.36919335e-03	8.71854677e-05
2.15000000e+00	2.37515564e-03	8.45055775e-05
2.15500000e+00	2.33978288e-03	8.34727573e-05
2.16000000e+00	2.34161785e-03	8.31076281e-05
2.16500000e+00	2.36910432e-03	8.45977259e-05
2.17000000e+00	2.33769470e-03	8.15242579e-05
2.17500000e+00	2.31189694e-03	8.08231489e-05
2.18000000e+00	2.31943734e-03	8.13526620e-05
2.18500000e+00	2.28474068e-03	8.04505197e-05
2.19000000e+00	2.29531211e-03	8.05960725e-05
2.19500000e+00	2.23957831e-03	7.82885968e-05
2.20000000e+00	2.22932085e-03	7.80959095e-05
2.20500000e+00	2.20493229e-03	7.75470354e-05
2.21000000e+00	2.20763697e-03	7.79680458e-05
2.21500000e+00	2.18714864e-03	7.64442818e-05
2.22000000e+00	2.15656056e-03	7.51998256e-05
2.22500000e+00	2.17617165e-03	7.65227553e-05
2.23000000e+00	2.15912530e-03	7.64100218e-05
2.23500000e+00	2.13211988e-03	7.44218281e-05
2.24000000e+00	2.13129334e-03	7.43497499e-05
2.24500000e+00	2.09445129e-03	7.37088108e-05
2.25000000e+00	2.09399763e-03	7.42029327e-05
2.25500000e+00	2.09377330e-03	7.29673218e-05
2.26000000e+00	2.05976123e-03	7.20111458e-05
2.26500000e+00	2.05963015e-03	7.22645557e-05
2.27000000e+00	2.02897699e-03	7.21975483e-05
2.27500000e+00	2.03351557e-03	7.09225037e-05
2.28000000e+00	1.99729167e-03	6.96674047e-05
2.28500000e+00	1.97989554e-03	6.94946548e-05
2.29000000e+00	1.99139976e-03	7.02792279e-05
2.29500000e+00	1.97445155e-03	6.95274135e-05
2.30000000e+00	1.96951802e-03	6.87483866e-05
2.30500000e+00	1.95804683e-03	6.84208590e-05
2.31000000e+00	1.95520856e-03	6.87319733e-05
2.31500000e+00	1.93631752e-03	6.85799668e-05
2.32000000e+00	1.93323489e-03	6.70974162e-05
2.32500000e+00	1.91387059e-03	6.70841702e-05
2.33000000e+00	2.16361969e-03	1.87167456e-04
2.33500000e+00	2.14672899e-03	1.44445764e-04
2.34000000e+00	1.92624549e-03	6.71216658e-05
2.34500000e+00	1.90995319e-03	6.65215104e-05
2.35000000e+00	1.89997896e-03	6.64373051e-05
2.35500000e+00	1.90318996e-03	6.74322204e-05
2.36000000e+00	1.89605804e-03	6.62662597e-05
2.36500000e+00	1.90135823e-03	6.63921897e-05
2.37000000e+00	1.89918148e-03	6.63666452e-05
2.37500000e+00	1.91707361e-03	6.75385253e-05
2.38000000e+00	1.91340665e-03	6.77678162e-05
2.38500000e+00	1.91139938e-03	6.67087735e-05
2.39000000e+00	1.91731364e-03	6.71300262e-05
2.39500000e+00	1.89815616e-03	6.67873358e-05
2.40000000e+00	1.88456450e-03	6.72862576e-05
2.40500000e+00	1.89986750e-03	6.65575014e-05
2.41000000e+00	1.93816146e-03	6.80881668e-05
2.41500000e+00	2.06893141e-03	7.27578336e-05
2.42000000e+00	2.43684614e-03	8.71352471e-05
2.42500000e+00	3.18708737e-03	1.14826882e-04
2.43000000e+00	3.43532671e-03	1.22804757e-04
2.43500000e+00	2.71832162e-03	9.68210506e-05
2.44000000e+00	2.21851055e-03	7.87311383e-05
2.44500000e+00	1.98710326e-03	7.12679125e-05
2.45000000e+00	1.89173087e-03	6.66613600e-05
2.45500000e+00	1.83693164e-03	6.49214128e-05
2.46000000e+00	1.79325943e-03	6.36969697e-05
2.46500000e+00	1.75910275e-03	6.31522517e-05
2.47000000e+00	1.73692527e-03	6.17807042e-05
2.47500000e+00	1.71575979e-03	6.06889535e-05
2.48000000e+00	1.70809145e-03	6.10079216e-05
2.48500000e+00	1.69195523e-03	6.03506198e-05
2.49000000e+00	1.66021182e-03	6.01241138e-05
2.49500000e+00	1.65016474e-03	5.85024184e-05
2.50000000e+00	1.64056098e-03	5.83642868e-05
2.50500000e+00	1.62809478e-03	5.82844697e-05
2.51000000e+00	1.63842089e-03	5.90391320e-05
2.51500000e+00	1.60928515e-03	5.81247146e-05
2.52000000e+00	1.60364679e-03	5.74797944e-05
2.52500000e+00	1.58361225e-03	5.68922587e-05
2.53000000e+00	1.57785920e-03	5.72470142e-05
2.53500000e+00	1.57030267e-03	5.76177556e-05
2.54000000e+00	1.56044967e-03	5.63624407e-05
2.54500000e+00	1.53879770e-03	5.57467883e-05
2.55000000e+00	1.55823714e-03	5.67893188e-05
2.55500000e+00	1.54144279e-03	5.66636847e-05
2.56000000e+00	1.54132975e-03	5.69614143e-05
2.56500000e+00	1.51671404e-03	5.54880942e-05
2.57000000e+00	1.50705804e-03	5.53912723e-05
2.57500000e+00	1.49000196e-03	5.49178943e-05
2.58000000e+00	1.49831794e-03	5.61465334e-05
2.58500000e+00	1.49593693e-03	5.55893925e-05
2.59000000e+00	1.49239988e-03	5.52414465e-05
2.59500000e+00	1.47732320e-03	5.49886659e-05
2.60000000e+00	1.45443619e-03	5.45712701e-05
2.60500000e+00	1.47552617e-03	5.64090665e-05
2.61000000e+00	1.47090124e-03	6.42639697e-05
2.61500000e+00	1.43375095e-03	6.92916107e-05
2.62000000e+00	1.42510003e-03	7.58324721e-05
2.62500000e+00	1.41257765e-03	8.14178786e-05
2.63000000e+00	1.40646911e-03	8.97873854e-05
2.63500000e+00	1.44647263e-03	1.01819730e-04
2.64000000e+00	1.49708314e-03	1.15954519e-04
2.64500000e+00	1.47897838e-03	1.22611432e-04
2.65000000e+00	1.50718412e-03	1.32626041e-04
2.65500000e+00	1.43543209e-03	1.35102720e-04
2.66000000e+00	1.41791285e-03	1.43046111e-04
2.66500000e+00	1.48670860e-03	1.68090276e-04
2.67000000e+00	1.44963876e-03	1.77918591e-04
2.67500000e+00	1.37503087e-03	1.97464321e-04
2.68000000e+00	1.33218018e-03	2.23101068e-04
2.68500000e+00	1.30895577e-03	2.90131894e-04
2.69000000e+00	1.52467602e-03	5.42166131e-04
2.69500000e+00	0.00000000e+00	0.00000000e+00
2.70000000e+00	0.00000000e+00	0.00000000e+00
