% Filename : WEC8_00040_00028.h5
% Date & Time : 30-Oct-2025 17:52:33
% X-ray Energy (keV) : 13.30001
% Exposure Time (s) : 0.500
% Photodiode Value : 141390.000
% I0 of Sample : 0
% I0 of Standard : 1
% 
% q(A^-1)   I(q)    I(q)_SE
8.40000000e-01	0.00000000e+00	0.00000000e+00
8.45000000e-01	3.30101269e-03	5.79710842e-04
8.50000000e-01	3.07281298e-03	2.84777638e-04
8.55000000e-01	3.01518349e-03	2.46584751e-04
8.60000000e-01	2.97802533e-03	2.10491644e-04
8.65000000e-01	2.99733466e-03	1.95112575e-04
8.70000000e-01	2.99968427e-03	1.86352183e-04
8.75000000e-01	2.99792002e-03	1.79077902e-04
8.80000000e-01	3.01297782e-03	1.74015959e-04
8.85000000e-01	2.99355385e-03	1.63546068e-04
8.90000000e-01	3.02591880e-03	1.61615411e-04
8.95000000e-01	3.05253782e-03	1.58404503e-04
9.00000000e-01	3.02779331e-03	1.55735408e-04
9.05000000e-01	3.05147912e-03	1.50206885e-04
9.10000000e-01	3.04191965e-03	1.46939755e-04
9.15000000e-01	3.06880311e-03	1.45843036e-04
9.20000000e-01	3.05755521e-03	1.44975692e-04
9.25000000e-01	3.06662957e-03	1.39307208e-04
9.30000000e-01	3.07790786e-03	1.38266174e-04
9.35000000e-01	3.09061612e-03	1.36245827e-04
9.40000000e-01	3.10138960e-03	1.37011382e-04
9.45000000e-01	3.10632264e-03	1.33870912e-04
9.50000000e-01	3.11527023e-03	1.32343878e-04
9.55000000e-01	3.10951206e-03	1.29722980e-04
9.60000000e-01	3.12349347e-03	1.30472535e-04
9.65000000e-01	3.10499262e-03	1.27508586e-04
9.70000000e-01	3.12122393e-03	1.26074869e-04
9.75000000e-01	3.13952001e-03	1.25390938e-04
9.80000000e-01	3.13942154e-03	1.24301642e-04
9.85000000e-01	3.13212447e-03	1.24088985e-04
9.90000000e-01	3.14644546e-03	1.20897608e-04
9.95000000e-01	3.16391482e-03	1.21125381e-04
1.00000000e+00	3.15762178e-03	1.20164003e-04
1.00500000e+00	3.11401893e-03	1.18538465e-04
1.01000000e+00	3.15425224e-03	1.17573785e-04
1.01500000e+00	3.12313608e-03	1.15228534e-04
1.02000000e+00	3.16043648e-03	1.16632099e-04
1.02500000e+00	3.13935933e-03	1.14340661e-04
1.03000000e+00	3.12553110e-03	1.13519442e-04
1.03500000e+00	3.14121630e-03	1.12456914e-04
1.04000000e+00	3.11164510e-03	1.10708699e-04
1.04500000e+00	3.13802432e-03	1.11737538e-04
1.05000000e+00	3.13264776e-03	1.10779824e-04
1.05500000e+00	3.11994792e-03	1.08542932e-04
1.06000000e+00	3.13717181e-03	1.08973438e-04
1.06500000e+00	3.15159740e-03	1.09484010e-04
1.07000000e+00	3.12840844e-03	1.08463235e-04
1.07500000e+00	3.15698499e-03	1.08599103e-04
1.08000000e+00	3.15806638e-03	1.08183250e-04
1.08500000e+00	3.17487523e-03	1.08786565e-04
1.09000000e+00	3.17888381e-03	1.09570682e-04
1.09500000e+00	3.17304088e-03	1.07164346e-04
1.10000000e+00	3.18827537e-03	1.08371945e-04
1.10500000e+00	3.21757244e-03	1.09737278e-04
1.11000000e+00	3.17926799e-03	1.08553463e-04
1.11500000e+00	3.21762470e-03	1.09013561e-04
1.12000000e+00	3.22491828e-03	1.09750912e-04
1.12500000e+00	3.23647765e-03	1.09836233e-04
1.13000000e+00	3.23660568e-03	1.11154909e-04
1.13500000e+00	3.26835367e-03	1.10863951e-04
1.14000000e+00	3.29031230e-03	1.11551308e-04
1.14500000e+00	3.28425513e-03	1.12087584e-04
1.15000000e+00	3.29486174e-03	1.13110853e-04
1.15500000e+00	3.30654339e-03	1.12293664e-04
1.16000000e+00	3.34284302e-03	1.13805458e-04
1.16500000e+00	3.35838290e-03	1.14284299e-04
1.17000000e+00	3.33952995e-03	1.15102374e-04
1.17500000e+00	3.37643756e-03	1.14642960e-04
1.18000000e+00	3.36834004e-03	1.14965385e-04
1.18500000e+00	3.37808673e-03	1.15078472e-04
1.19000000e+00	3.36594853e-03	1.15970905e-04
1.19500000e+00	3.39093042e-03	1.15318354e-04
1.20000000e+00	3.41788680e-03	1.16946364e-04
1.20500000e+00	3.41371375e-03	1.16595555e-04
1.21000000e+00	3.41311250e-03	1.18122855e-04
1.21500000e+00	3.43321199e-03	1.16870124e-04
1.22000000e+00	3.45008412e-03	1.17589097e-04
1.22500000e+00	3.45753082e-03	1.18268507e-04
1.23000000e+00	3.47048464e-03	1.19664258e-04
1.23500000e+00	3.46564450e-03	1.18754663e-04
1.24000000e+00	3.48558799e-03	1.18841172e-04
1.24500000e+00	3.47000933e-03	1.19206048e-04
1.25000000e+00	3.48217576e-03	1.20207454e-04
1.25500000e+00	3.50186486e-03	1.19551329e-04
1.26000000e+00	3.51393111e-03	1.20737985e-04
1.26500000e+00	3.53368114e-03	1.20940523e-04
1.27000000e+00	3.52059296e-03	1.22220453e-04
1.27500000e+00	3.53905184e-03	1.21659386e-04
1.28000000e+00	3.52921175e-03	1.20547693e-04
1.28500000e+00	3.52754965e-03	1.21196345e-04
1.29000000e+00	3.55402347e-03	1.23163123e-04
1.29500000e+00	3.56932101e-03	1.22383743e-04
1.30000000e+00	3.54824994e-03	1.21477526e-04
1.30500000e+00	3.57629244e-03	1.23011432e-04
1.31000000e+00	3.58566251e-03	1.24750130e-04
1.31500000e+00	3.58146100e-03	1.23047624e-04
1.32000000e+00	3.60452270e-03	1.23678376e-04
1.32500000e+00	3.61481554e-03	1.24375748e-04
1.33000000e+00	3.61560942e-03	1.25874493e-04
1.33500000e+00	3.62337020e-03	1.24507476e-04
1.34000000e+00	3.64920782e-03	1.25415763e-04
1.34500000e+00	3.64296990e-03	1.25740845e-04
1.35000000e+00	3.61894155e-03	1.26034756e-04
1.35500000e+00	3.66121950e-03	1.25757667e-04
1.36000000e+00	3.65553892e-03	1.25374661e-04
1.36500000e+00	3.67109413e-03	1.26393428e-04
1.37000000e+00	3.66522080e-03	1.28012780e-04
1.37500000e+00	3.69534234e-03	1.27170794e-04
1.38000000e+00	3.65720354e-03	1.26076909e-04
1.38500000e+00	3.66919974e-03	1.27235720e-04
1.39000000e+00	3.69265424e-03	1.28822273e-04
1.39500000e+00	3.69117804e-03	1.26894843e-04
1.40000000e+00	3.73006472e-03	1.32121397e-04
1.40500000e+00	3.66908220e-03	1.39915830e-04
1.41000000e+00	3.66106284e-03	1.46113988e-04
1.41500000e+00	3.63104925e-03	1.50241253e-04
1.42000000e+00	3.62917799e-03	1.56128508e-04
1.42500000e+00	3.58075839e-03	1.58570873e-04
1.43000000e+00	3.60203840e-03	1.65591326e-04
1.43500000e+00	3.56893349e-03	1.69140001e-04
1.44000000e+00	3.58961955e-03	1.76720681e-04
1.44500000e+00	3.55942284e-03	1.79769058e-04
1.45000000e+00	3.59830793e-03	1.75829442e-04
1.45500000e+00	3.62579593e-03	1.59115329e-04
1.46000000e+00	3.61233851e-03	1.54860658e-04
1.46500000e+00	3.61282316e-03	1.51870894e-04
1.47000000e+00	3.60685037e-03	1.51438822e-04
1.47500000e+00	3.58935564e-03	1.46455581e-04
1.48000000e+00	3.59623838e-03	1.44997165e-04
1.48500000e+00	3.60579521e-03	1.45540822e-04
1.49000000e+00	3.60233015e-03	1.45860917e-04
1.49500000e+00	3.58598684e-03	1.41947274e-04
1.50000000e+00	3.57779809e-03	1.41239147e-04
1.50500000e+00	3.57825045e-03	1.41944073e-04
1.51000000e+00	3.58940100e-03	1.42742321e-04
1.51500000e+00	3.57772538e-03	1.39922844e-04
1.52000000e+00	3.60548483e-03	1.40520266e-04
1.52500000e+00	3.58678977e-03	1.39714865e-04
1.53000000e+00	3.56931363e-03	1.39833609e-04
1.53500000e+00	3.56913042e-03	1.35851413e-04
1.54000000e+00	3.53013064e-03	1.34195044e-04
1.54500000e+00	3.52754599e-03	1.33819846e-04
1.55000000e+00	3.52440635e-03	1.33332700e-04
1.55500000e+00	3.51025082e-03	1.29746675e-04
1.56000000e+00	3.48893145e-03	1.29305990e-04
1.56500000e+00	3.47458177e-03	1.28086492e-04
1.57000000e+00	3.44376548e-03	1.26111381e-04
1.57500000e+00	3.46149162e-03	1.24314086e-04
1.58000000e+00	3.44551184e-03	1.23461969e-04
1.58500000e+00	3.42913247e-03	1.22929559e-04
1.59000000e+00	3.41364946e-03	1.22411859e-04
1.59500000e+00	3.40289241e-03	1.19682655e-04
1.60000000e+00	3.39939742e-03	1.19536029e-04
1.60500000e+00	3.38048178e-03	1.18979694e-04
1.61000000e+00	3.38640336e-03	1.18676619e-04
1.61500000e+00	3.40685915e-03	1.18314526e-04
1.62000000e+00	3.35534710e-03	1.16967985e-04
1.62500000e+00	3.36729677e-03	1.18715013e-04
1.63000000e+00	3.38621233e-03	1.18160507e-04
1.63500000e+00	3.38744685e-03	1.18214929e-04
1.64000000e+00	3.35861495e-03	1.17282753e-04
1.64500000e+00	3.35106134e-03	1.18259468e-04
1.65000000e+00	3.35407004e-03	1.17106800e-04
1.65500000e+00	3.36087590e-03	1.17182805e-04
1.66000000e+00	3.35723427e-03	1.17233243e-04
1.66500000e+00	3.32652245e-03	1.18075529e-04
1.67000000e+00	3.32347471e-03	1.15520087e-04
1.67500000e+00	3.30157543e-03	1.15086082e-04
1.68000000e+00	3.31009653e-03	1.15745184e-04
1.68500000e+00	3.30754641e-03	1.17493140e-04
1.69000000e+00	3.29402971e-03	1.14761862e-04
1.69500000e+00	3.27342016e-03	1.13865656e-04
1.70000000e+00	3.26777003e-03	1.15015910e-04
1.70500000e+00	3.25818690e-03	1.15225631e-04
1.71000000e+00	3.23619532e-03	1.12943037e-04
1.71500000e+00	3.22915569e-03	1.12635438e-04
1.72000000e+00	3.21979043e-03	1.13217259e-04
1.72500000e+00	3.20459546e-03	1.13297620e-04
1.73000000e+00	3.19767986e-03	1.11589402e-04
1.73500000e+00	3.20907051e-03	1.12272454e-04
1.74000000e+00	3.17896880e-03	1.11464015e-04
1.74500000e+00	3.18627341e-03	1.13075451e-04
1.75000000e+00	3.17853558e-03	1.10637094e-04
1.75500000e+00	3.14521558e-03	1.10272123e-04
1.76000000e+00	3.12941835e-03	1.09567299e-04
1.76500000e+00	3.14341233e-03	1.11472424e-04
1.77000000e+00	3.14186046e-03	1.09588224e-04
1.77500000e+00	3.11433111e-03	1.08925878e-04
1.78000000e+00	3.08473137e-03	1.08246848e-04
1.78500000e+00	3.09536555e-03	1.09730775e-04
1.79000000e+00	3.11287642e-03	1.08499238e-04
1.79500000e+00	3.10925175e-03	1.08746327e-04
1.80000000e+00	3.07526471e-03	1.08182206e-04
1.80500000e+00	3.09864174e-03	1.09664709e-04
1.81000000e+00	3.07715788e-03	1.07364610e-04
1.81500000e+00	3.11763411e-03	1.08742755e-04
1.82000000e+00	3.08631013e-03	1.08493948e-04
1.82500000e+00	3.07910778e-03	1.08845308e-04
1.83000000e+00	3.07037900e-03	1.07181920e-04
1.83500000e+00	3.06606978e-03	1.07291833e-04
1.84000000e+00	3.04231820e-03	1.06942397e-04
1.84500000e+00	3.02923309e-03	1.07119579e-04
1.85000000e+00	3.03773686e-03	1.06172681e-04
1.85500000e+00	3.01932879e-03	1.05538487e-04
1.86000000e+00	3.00851981e-03	1.05931473e-04
1.86500000e+00	2.99091708e-03	1.05617656e-04
1.87000000e+00	3.01065504e-03	1.05084389e-04
1.87500000e+00	2.98672652e-03	1.04633899e-04
1.88000000e+00	2.98114218e-03	1.04792945e-04
1.88500000e+00	2.94744201e-03	1.04271775e-04
1.89000000e+00	2.97036238e-03	1.03613033e-04
1.89500000e+00	2.95990700e-03	1.03819391e-04
1.90000000e+00	2.93837777e-03	1.03421194e-04
1.90500000e+00	2.94605769e-03	1.03748643e-04
1.91000000e+00	2.96415766e-03	1.03671134e-04
1.91500000e+00	2.93214538e-03	1.02590515e-04
1.92000000e+00	2.93986982e-03	1.03485996e-04
1.92500000e+00	2.93666023e-03	1.03436805e-04
1.93000000e+00	2.91854995e-03	1.01880799e-04
1.93500000e+00	2.92790658e-03	1.02637499e-04
1.94000000e+00	2.89192615e-03	1.02050132e-04
1.94500000e+00	2.89432915e-03	1.01879996e-04
1.95000000e+00	2.86492817e-03	9.99035697e-05
1.95500000e+00	2.84811941e-03	9.97034444e-05
1.96000000e+00	2.86202443e-03	1.00827202e-04
1.96500000e+00	2.84025160e-03	1.00179759e-04
1.97000000e+00	2.83092802e-03	9.86302251e-05
1.97500000e+00	2.78800482e-03	9.78196432e-05
1.98000000e+00	2.80453548e-03	9.88061714e-05
1.98500000e+00	2.78923253e-03	9.84273797e-05
1.99000000e+00	2.77116117e-03	9.66074548e-05
1.99500000e+00	2.78546234e-03	9.75113473e-05
2.00000000e+00	2.74659039e-03	9.68926947e-05
2.00500000e+00	2.77762611e-03	9.80452633e-05
2.01000000e+00	2.77542317e-03	1.07621840e-04
2.01500000e+00	2.75747100e-03	1.13587173e-04
2.02000000e+00	2.69749763e-03	1.18457425e-04
2.02500000e+00	2.73479207e-03	1.24647369e-04
2.03000000e+00	2.66798041e-03	1.28935704e-04
2.03500000e+00	2.67488176e-03	1.34824447e-04
2.04000000e+00	2.66435404e-03	1.40605974e-04
2.04500000e+00	2.66812707e-03	1.48067471e-04
2.05000000e+00	2.63609830e-03	1.53594102e-04
2.05500000e+00	2.68205707e-03	1.52870135e-04
2.06000000e+00	2.69050309e-03	1.33600034e-04
2.06500000e+00	2.69557921e-03	1.27748855e-04
2.07000000e+00	2.66067673e-03	1.19513665e-04
2.07500000e+00	2.65572973e-03	1.16509865e-04
2.08000000e+00	2.65150923e-03	1.16301608e-04
2.08500000e+00	2.62554938e-03	1.14019613e-04
2.09000000e+00	2.64311336e-03	1.11414429e-04
2.09500000e+00	2.61186700e-03	1.09011239e-04
2.10000000e+00	2.60201834e-03	1.07852896e-04
2.10500000e+00	2.60076751e-03	1.07414619e-04
2.11000000e+00	2.56708947e-03	1.02129979e-04
2.11500000e+00	2.56448123e-03	1.01053564e-04
2.12000000e+00	2.52427076e-03	9.89862805e-05
2.12500000e+00	2.50710737e-03	9.79659573e-05
2.13000000e+00	2.51554855e-03	9.43479678e-05
2.13500000e+00	2.45535658e-03	9.10135141e-05
2.14000000e+00	2.48961086e-03	9.13727066e-05
2.14500000e+00	2.45804434e-03	9.03989446e-05
2.15000000e+00	2.43084299e-03	8.65314934e-05
2.15500000e+00	2.42533854e-03	8.64017687e-05
2.16000000e+00	2.42712574e-03	8.60914477e-05
2.16500000e+00	2.41009605e-03	8.60374947e-05
2.17000000e+00	2.40553776e-03	8.37896696e-05
2.17500000e+00	2.39387864e-03	8.36709279e-05
2.18000000e+00	2.37996741e-03	8.33939820e-05
2.18500000e+00	2.36478173e-03	8.33276923e-05
2.19000000e+00	2.35291968e-03	8.26619076e-05
2.19500000e+00	2.35023376e-03	8.20878236e-05
2.20000000e+00	2.32943098e-03	8.15652366e-05
2.20500000e+00	2.31683164e-03	8.13851984e-05
2.21000000e+00	2.31571585e-03	8.16701715e-05
2.21500000e+00	2.29794475e-03	8.02251346e-05
2.22000000e+00	2.27567635e-03	7.93304293e-05
2.22500000e+00	2.24435005e-03	7.89172434e-05
2.23000000e+00	2.25869657e-03	7.98499881e-05
2.23500000e+00	2.24255143e-03	7.82004670e-05
2.24000000e+00	2.23939519e-03	7.81710609e-05
2.24500000e+00	2.21327187e-03	7.77282349e-05
2.25000000e+00	2.19984769e-03	7.80322601e-05
2.25500000e+00	2.20788741e-03	7.67898609e-05
2.26000000e+00	2.19716306e-03	7.66861291e-05
2.26500000e+00	2.18344672e-03	7.65131731e-05
2.27000000e+00	2.15819931e-03	7.67208597e-05
2.27500000e+00	2.14309333e-03	7.45898595e-05
2.28000000e+00	2.12821844e-03	7.41807896e-05
2.28500000e+00	2.12043616e-03	7.44110554e-05
2.29000000e+00	2.09737559e-03	7.39742198e-05
2.29500000e+00	2.09474861e-03	7.36965062e-05
2.30000000e+00	2.08434808e-03	7.26183613e-05
2.30500000e+00	2.07349267e-03	7.24212473e-05
2.31000000e+00	2.06781194e-03	7.25722515e-05
2.31500000e+00	2.03988348e-03	7.21874245e-05
2.32000000e+00	2.03325588e-03	7.05355481e-05
2.32500000e+00	2.03489450e-03	7.11951358e-05
2.33000000e+00	1.98455723e-03	6.95323788e-05
2.33500000e+00	1.99249729e-03	7.05542876e-05
2.34000000e+00	1.97289228e-03	6.86888010e-05
2.34500000e+00	1.95932784e-03	6.82010744e-05
2.35000000e+00	1.94352129e-03	6.79325715e-05
2.35500000e+00	1.93500908e-03	6.86175180e-05
2.36000000e+00	1.90770517e-03	6.66502232e-05
2.36500000e+00	1.91571745e-03	6.69046280e-05
2.37000000e+00	1.90194387e-03	6.63763562e-05
2.37500000e+00	1.90010990e-03	6.69358073e-05
2.38000000e+00	1.86142572e-03	6.59094239e-05
2.38500000e+00	1.86993670e-03	6.51791915e-05
2.39000000e+00	1.86306092e-03	6.52064302e-05
2.39500000e+00	1.84774371e-03	6.49378691e-05
2.40000000e+00	1.83292081e-03	6.53620869e-05
2.40500000e+00	1.83690978e-03	6.42058357e-05
2.41000000e+00	1.82228486e-03	6.39869236e-05
2.41500000e+00	1.81115433e-03	6.35904592e-05
2.42000000e+00	1.81318419e-03	6.44368285e-05
2.42500000e+00	1.80831660e-03	6.42880583e-05
2.43000000e+00	1.80324411e-03	6.34158924e-05
2.43500000e+00	1.77437783e-03	6.26686971e-05
2.44000000e+00	1.76019480e-03	6.22939940e-05
2.44500000e+00	1.74918309e-03	6.27225127e-05
2.45000000e+00	1.74059095e-03	6.12990937e-05
2.45500000e+00	1.72672466e-03	6.09879266e-05
2.46000000e+00	1.73191257e-03	6.15271554e-05
2.46500000e+00	1.68605564e-03	6.05929486e-05
2.47000000e+00	1.68369238e-03	5.98654088e-05
2.47500000e+00	1.67959597e-03	5.94139725e-05
2.48000000e+00	1.68548566e-03	6.01162745e-05
2.48500000e+00	1.66199627e-03	5.93398963e-05
2.49000000e+00	1.65919697e-03	6.00165240e-05
2.49500000e+00	1.64680730e-03	5.83902397e-05
2.50000000e+00	1.64918988e-03	5.86847823e-05
2.50500000e+00	1.63187344e-03	5.83492568e-05
2.51000000e+00	1.63131218e-03	5.87774483e-05
2.51500000e+00	1.62068675e-03	5.85051242e-05
2.52000000e+00	1.60250455e-03	5.73330799e-05
2.52500000e+00	1.59692923e-03	5.74065921e-05
2.53000000e+00	1.59581085e-03	5.78850479e-05
2.53500000e+00	1.58244679e-03	5.81344937e-05
2.54000000e+00	1.56078629e-03	5.63074908e-05
2.54500000e+00	1.57765708e-03	5.72903313e-05
2.55000000e+00	1.56641240e-03	5.70380307e-05
2.55500000e+00	1.55264143e-03	5.70402982e-05
2.56000000e+00	1.56711845e-03	5.78818403e-05
2.56500000e+00	1.53849922e-03	5.63186784e-05
2.57000000e+00	1.53071256e-03	5.63145157e-05
2.57500000e+00	1.53048606e-03	5.64552923e-05
2.58000000e+00	1.51959822e-03	5.68873553e-05
2.58500000e+00	1.51226034e-03	5.62113366e-05
2.59000000e+00	1.50641040e-03	5.58173646e-05
2.59500000e+00	1.49935183e-03	5.57546191e-05
2.60000000e+00	1.50280703e-03	5.63425372e-05
2.60500000e+00	1.51080181e-03	5.79099620e-05
2.61000000e+00	1.49420635e-03	6.52483905e-05
2.61500000e+00	1.47065832e-03	7.11651954e-05
2.62000000e+00	1.45044594e-03	7.71529812e-05
2.62500000e+00	1.45038505e-03	8.35552260e-05
2.63000000e+00	1.43294076e-03	9.12808004e-05
2.63500000e+00	1.45695573e-03	1.02452076e-04
2.64000000e+00	1.49349796e-03	1.15761829e-04
2.64500000e+00	1.48823589e-03	1.23125554e-04
2.65000000e+00	1.49220666e-03	1.30411255e-04
2.65500000e+00	1.47453651e-03	1.39009780e-04
2.66000000e+00	1.44438176e-03	1.45522750e-04
2.66500000e+00	1.47040281e-03	1.66425666e-04
2.67000000e+00	1.44766148e-03	1.77897311e-04
2.67500000e+00	1.40811976e-03	2.01491751e-04
2.68000000e+00	1.40198032e-03	2.33020941e-04
2.68500000e+00	1.40768869e-03	3.10917340e-04
2.69000000e+00	1.59172069e-03	5.66785148e-04
2.69500000e+00	0.00000000e+00	0.00000000e+00
2.70000000e+00	0.00000000e+00	0.00000000e+00
