% Filename : WEC8_00040_00021.h5
% Date & Time : 30-Oct-2025 17:52:13
% X-ray Energy (keV) : 13.30001
% Exposure Time (s) : 0.500
% Photodiode Value : 141293.000
% I0 of Sample : 0
% I0 of Standard : 1
% 
% q(A^-1)   I(q)    I(q)_SE
8.40000000e-01	0.00000000e+00	0.00000000e+00
8.45000000e-01	3.25017525e-03	5.69014909e-04
8.50000000e-01	3.04489132e-03	2.82113042e-04
8.55000000e-01	2.97926215e-03	2.43503651e-04
8.60000000e-01	3.00126503e-03	2.12201204e-04
8.65000000e-01	2.98654938e-03	1.94530563e-04
8.70000000e-01	3.02942140e-03	1.88055153e-04
8.75000000e-01	2.97028096e-03	1.77429527e-04
8.80000000e-01	3.00109706e-03	1.73253608e-04
8.85000000e-01	2.99781598e-03	1.63713439e-04
8.90000000e-01	3.04874920e-03	1.63028497e-04
8.95000000e-01	2.98810984e-03	1.55051927e-04
9.00000000e-01	3.06140639e-03	1.57418360e-04
9.05000000e-01	3.03677936e-03	1.49335630e-04
9.10000000e-01	3.04344417e-03	1.47050995e-04
9.15000000e-01	3.04375289e-03	1.44688157e-04
9.20000000e-01	3.04694734e-03	1.44581513e-04
9.25000000e-01	3.07102137e-03	1.39343064e-04
9.30000000e-01	3.08094657e-03	1.38416005e-04
9.35000000e-01	3.08357784e-03	1.35863573e-04
9.40000000e-01	3.07792611e-03	1.36063078e-04
9.45000000e-01	3.09585000e-03	1.33546753e-04
9.50000000e-01	3.08284401e-03	1.30983716e-04
9.55000000e-01	3.10775441e-03	1.29721809e-04
9.60000000e-01	3.07869188e-03	1.28537571e-04
9.65000000e-01	3.12030111e-03	1.28170628e-04
9.70000000e-01	3.11310344e-03	1.25734153e-04
9.75000000e-01	3.11066673e-03	1.24283695e-04
9.80000000e-01	3.12948683e-03	1.23960953e-04
9.85000000e-01	3.12135954e-03	1.23750157e-04
9.90000000e-01	3.13597376e-03	1.20590303e-04
9.95000000e-01	3.13985842e-03	1.20130652e-04
1.00000000e+00	3.14276247e-03	1.19725536e-04
1.00500000e+00	3.13649898e-03	1.19494117e-04
1.01000000e+00	3.13597875e-03	1.16921398e-04
1.01500000e+00	3.15389180e-03	1.16469654e-04
1.02000000e+00	3.14239279e-03	1.15968056e-04
1.02500000e+00	3.11891691e-03	1.13631035e-04
1.03000000e+00	3.13092013e-03	1.13664424e-04
1.03500000e+00	3.10842425e-03	1.11386090e-04
1.04000000e+00	3.11376236e-03	1.10777144e-04
1.04500000e+00	3.11968281e-03	1.11004272e-04
1.05000000e+00	3.12327204e-03	1.10445917e-04
1.05500000e+00	3.10321727e-03	1.08041000e-04
1.06000000e+00	3.10825242e-03	1.07828143e-04
1.06500000e+00	3.12350225e-03	1.08609551e-04
1.07000000e+00	3.11368351e-03	1.08075043e-04
1.07500000e+00	3.13699026e-03	1.08003209e-04
1.08000000e+00	3.13887659e-03	1.07498038e-04
1.08500000e+00	3.13069821e-03	1.07366532e-04
1.09000000e+00	3.14750625e-03	1.08428249e-04
1.09500000e+00	3.15031129e-03	1.06465231e-04
1.10000000e+00	3.16488094e-03	1.07625571e-04
1.10500000e+00	3.18133505e-03	1.08531262e-04
1.11000000e+00	3.20451239e-03	1.09381691e-04
1.11500000e+00	3.19803794e-03	1.08423226e-04
1.12000000e+00	3.20841318e-03	1.09142661e-04
1.12500000e+00	3.21708343e-03	1.09306967e-04
1.13000000e+00	3.22816746e-03	1.10973668e-04
1.13500000e+00	3.23304325e-03	1.09721053e-04
1.14000000e+00	3.25690570e-03	1.10385693e-04
1.14500000e+00	3.27814269e-03	1.11967280e-04
1.15000000e+00	3.25138299e-03	1.11632834e-04
1.15500000e+00	3.29539245e-03	1.11973189e-04
1.16000000e+00	3.28623691e-03	1.11961769e-04
1.16500000e+00	3.30696793e-03	1.12694409e-04
1.17000000e+00	3.32439597e-03	1.14598593e-04
1.17500000e+00	3.33420463e-03	1.13254980e-04
1.18000000e+00	3.32846026e-03	1.13662737e-04
1.18500000e+00	3.34914889e-03	1.14178201e-04
1.19000000e+00	3.37347176e-03	1.16173918e-04
1.19500000e+00	3.39371470e-03	1.15528030e-04
1.20000000e+00	3.39146848e-03	1.16062859e-04
1.20500000e+00	3.35981746e-03	1.14680214e-04
1.21000000e+00	3.41312583e-03	1.18104811e-04
1.21500000e+00	3.40800613e-03	1.16066628e-04
1.22000000e+00	3.40003469e-03	1.15951734e-04
1.22500000e+00	3.40728983e-03	1.16593003e-04
1.23000000e+00	3.41732852e-03	1.17824339e-04
1.23500000e+00	3.43665967e-03	1.17718049e-04
1.24000000e+00	3.45975627e-03	1.18026092e-04
1.24500000e+00	3.41772963e-03	1.17398859e-04
1.25000000e+00	3.42336213e-03	1.18361496e-04
1.25500000e+00	3.46215012e-03	1.18181991e-04
1.26000000e+00	3.48573362e-03	1.19764064e-04
1.26500000e+00	3.48560723e-03	1.19256411e-04
1.27000000e+00	3.45951577e-03	1.20060491e-04
1.27500000e+00	3.48452396e-03	1.19792908e-04
1.28000000e+00	3.51363876e-03	1.20018000e-04
1.28500000e+00	3.52543847e-03	1.21075372e-04
1.29000000e+00	3.51579726e-03	1.21904307e-04
1.29500000e+00	3.52900563e-03	1.20977603e-04
1.30000000e+00	3.53447036e-03	1.20919808e-04
1.30500000e+00	3.55584699e-03	1.22302280e-04
1.31000000e+00	3.55631622e-03	1.23754220e-04
1.31500000e+00	3.57136722e-03	1.22778409e-04
1.32000000e+00	3.57103158e-03	1.22489551e-04
1.32500000e+00	3.55731299e-03	1.22426592e-04
1.33000000e+00	3.57310970e-03	1.24504506e-04
1.33500000e+00	3.57828111e-03	1.22959348e-04
1.34000000e+00	3.59089210e-03	1.23567042e-04
1.34500000e+00	3.58633962e-03	1.23814139e-04
1.35000000e+00	3.63194113e-03	1.26578605e-04
1.35500000e+00	3.63524789e-03	1.24933245e-04
1.36000000e+00	3.62681550e-03	1.24503060e-04
1.36500000e+00	3.65887292e-03	1.25903475e-04
1.37000000e+00	3.61534611e-03	1.26394862e-04
1.37500000e+00	3.63488243e-03	1.25087472e-04
1.38000000e+00	3.68650530e-03	1.27242977e-04
1.38500000e+00	3.65700196e-03	1.26836315e-04
1.39000000e+00	3.64023748e-03	1.26999414e-04
1.39500000e+00	3.63972374e-03	1.25230546e-04
1.40000000e+00	3.67492551e-03	1.30170066e-04
1.40500000e+00	3.62751661e-03	1.38303578e-04
1.41000000e+00	3.61501912e-03	1.44385539e-04
1.41500000e+00	3.56638210e-03	1.47448206e-04
1.42000000e+00	3.57002394e-03	1.53723869e-04
1.42500000e+00	3.58165097e-03	1.58676803e-04
1.43000000e+00	3.54246974e-03	1.62893225e-04
1.43500000e+00	3.51093559e-03	1.66475757e-04
1.44000000e+00	3.49439514e-03	1.72105326e-04
1.44500000e+00	3.49506598e-03	1.76668455e-04
1.45000000e+00	3.54703799e-03	1.73229642e-04
1.45500000e+00	3.56652864e-03	1.56480145e-04
1.46000000e+00	3.59089773e-03	1.53949445e-04
1.46500000e+00	3.54598468e-03	1.49201542e-04
1.47000000e+00	3.55705781e-03	1.49569901e-04
1.47500000e+00	3.57185681e-03	1.45649576e-04
1.48000000e+00	3.55662573e-03	1.43408525e-04
1.48500000e+00	3.54227159e-03	1.43000852e-04
1.49000000e+00	3.55882440e-03	1.44053657e-04
1.49500000e+00	3.52850993e-03	1.39856949e-04
1.50000000e+00	3.52057519e-03	1.39013262e-04
1.50500000e+00	3.56196485e-03	1.41315214e-04
1.51000000e+00	3.53050902e-03	1.40425027e-04
1.51500000e+00	3.60688832e-03	1.41124610e-04
1.52000000e+00	3.57883280e-03	1.39598257e-04
1.52500000e+00	3.53970462e-03	1.37916404e-04
1.53000000e+00	3.52154740e-03	1.37899486e-04
1.53500000e+00	3.53736612e-03	1.34662412e-04
1.54000000e+00	3.49798471e-03	1.32996161e-04
1.54500000e+00	3.48679346e-03	1.32196144e-04
1.55000000e+00	3.47357729e-03	1.31364954e-04
1.55500000e+00	3.49017082e-03	1.28970407e-04
1.56000000e+00	3.48095374e-03	1.28976343e-04
1.56500000e+00	3.43472600e-03	1.26678578e-04
1.57000000e+00	3.42117213e-03	1.25268620e-04
1.57500000e+00	3.40983907e-03	1.22526210e-04
1.58000000e+00	3.39230876e-03	1.21673188e-04
1.58500000e+00	3.42661622e-03	1.22854522e-04
1.59000000e+00	3.36994536e-03	1.20946303e-04
1.59500000e+00	3.40118483e-03	1.19793036e-04
1.60000000e+00	3.37652222e-03	1.18730531e-04
1.60500000e+00	3.36299631e-03	1.18348468e-04
1.61000000e+00	3.36550668e-03	1.17917155e-04
1.61500000e+00	3.37398199e-03	1.17183103e-04
1.62000000e+00	3.34797402e-03	1.16799274e-04
1.62500000e+00	3.34016657e-03	1.17821115e-04
1.63000000e+00	3.37311956e-03	1.17846146e-04
1.63500000e+00	3.33867610e-03	1.16634881e-04
1.64000000e+00	3.31741655e-03	1.15844605e-04
1.64500000e+00	3.29983285e-03	1.16485415e-04
1.65000000e+00	3.30160753e-03	1.15271828e-04
1.65500000e+00	3.29767754e-03	1.15025023e-04
1.66000000e+00	3.27045817e-03	1.14202462e-04
1.66500000e+00	3.26097645e-03	1.15751438e-04
1.67000000e+00	3.23725997e-03	1.12558163e-04
1.67500000e+00	3.24147859e-03	1.12970793e-04
1.68000000e+00	3.25500180e-03	1.13774650e-04
1.68500000e+00	3.26208588e-03	1.15869495e-04
1.69000000e+00	3.23194241e-03	1.12687053e-04
1.69500000e+00	3.23020440e-03	1.12349826e-04
1.70000000e+00	3.22820802e-03	1.13592938e-04
1.70500000e+00	3.20512126e-03	1.13319192e-04
1.71000000e+00	3.19441229e-03	1.11522406e-04
1.71500000e+00	3.18556311e-03	1.11126570e-04
1.72000000e+00	3.18197287e-03	1.11933689e-04
1.72500000e+00	3.16615620e-03	1.11938957e-04
1.73000000e+00	3.19506773e-03	1.11497479e-04
1.73500000e+00	3.14223341e-03	1.09895466e-04
1.74000000e+00	3.13441269e-03	1.09957530e-04
1.74500000e+00	3.14090257e-03	1.11507051e-04
1.75000000e+00	3.13694199e-03	1.09177548e-04
1.75500000e+00	3.12164002e-03	1.09353795e-04
1.76000000e+00	3.12022843e-03	1.09286993e-04
1.76500000e+00	3.11037949e-03	1.10358542e-04
1.77000000e+00	3.09702025e-03	1.07993978e-04
1.77500000e+00	3.05851417e-03	1.06985221e-04
1.78000000e+00	3.06715737e-03	1.07612413e-04
1.78500000e+00	3.08348917e-03	1.09308321e-04
1.79000000e+00	3.11165107e-03	1.08614690e-04
1.79500000e+00	3.06311994e-03	1.07069763e-04
1.80000000e+00	3.06536740e-03	1.07836891e-04
1.80500000e+00	3.05593810e-03	1.08204127e-04
1.81000000e+00	3.04666794e-03	1.06311460e-04
1.81500000e+00	3.06926876e-03	1.07072288e-04
1.82000000e+00	3.09865062e-03	1.08925239e-04
1.82500000e+00	3.06548313e-03	1.08374688e-04
1.83000000e+00	3.05284247e-03	1.06560282e-04
1.83500000e+00	3.06317049e-03	1.07144316e-04
1.84000000e+00	3.04669533e-03	1.07108095e-04
1.84500000e+00	3.02533429e-03	1.07057114e-04
1.85000000e+00	3.04037591e-03	1.06328704e-04
1.85500000e+00	3.00200956e-03	1.04992198e-04
1.86000000e+00	2.98945607e-03	1.05268755e-04
1.86500000e+00	2.98004297e-03	1.05202658e-04
1.87000000e+00	2.96719850e-03	1.03627752e-04
1.87500000e+00	2.97507675e-03	1.04194197e-04
1.88000000e+00	2.97568154e-03	1.04671082e-04
1.88500000e+00	2.93044263e-03	1.03687341e-04
1.89000000e+00	2.93315452e-03	1.02357920e-04
1.89500000e+00	2.94011209e-03	1.03120471e-04
1.90000000e+00	2.94004887e-03	1.03476399e-04
1.90500000e+00	2.92472242e-03	1.02984456e-04
1.91000000e+00	2.92937363e-03	1.02552078e-04
1.91500000e+00	2.91766187e-03	1.02104669e-04
1.92000000e+00	2.91158881e-03	1.02481690e-04
1.92500000e+00	2.88862967e-03	1.01775851e-04
1.93000000e+00	2.88781565e-03	1.00843756e-04
1.93500000e+00	2.89819102e-03	1.01512502e-04
1.94000000e+00	2.88558331e-03	1.01885368e-04
1.94500000e+00	2.87032038e-03	1.00987459e-04
1.95000000e+00	2.84958405e-03	9.93751927e-05
1.95500000e+00	2.82710057e-03	9.90334808e-05
1.96000000e+00	2.82416346e-03	9.95190798e-05
1.96500000e+00	2.82457455e-03	9.95339961e-05
1.97000000e+00	2.80117283e-03	9.75807681e-05
1.97500000e+00	2.78202621e-03	9.76185742e-05
1.98000000e+00	2.76474025e-03	9.74158235e-05
1.98500000e+00	2.77002661e-03	9.76857038e-05
1.99000000e+00	2.76282962e-03	9.62716370e-05
1.99500000e+00	2.77738637e-03	9.72308865e-05
2.00000000e+00	2.74016731e-03	9.66846305e-05
2.00500000e+00	2.77164418e-03	9.78875719e-05
2.01000000e+00	2.77034937e-03	1.07439236e-04
2.01500000e+00	2.73617530e-03	1.12704742e-04
2.02000000e+00	2.70627833e-03	1.18793369e-04
2.02500000e+00	2.68239302e-03	1.22304896e-04
2.03000000e+00	2.64649068e-03	1.27900236e-04
2.03500000e+00	2.64184541e-03	1.33390714e-04
2.04000000e+00	2.64856685e-03	1.39687274e-04
2.04500000e+00	2.61041452e-03	1.44943962e-04
2.05000000e+00	2.60862632e-03	1.52174829e-04
2.05500000e+00	2.65446084e-03	1.51374332e-04
2.06000000e+00	2.65438587e-03	1.32013304e-04
2.06500000e+00	2.61538816e-03	1.24263504e-04
2.07000000e+00	2.64178884e-03	1.18701486e-04
2.07500000e+00	2.67884555e-03	1.18334462e-04
2.08000000e+00	2.62992922e-03	1.15479422e-04
2.08500000e+00	2.58392992e-03	1.12343779e-04
2.09000000e+00	2.58883327e-03	1.09188052e-04
2.09500000e+00	2.58720409e-03	1.07882506e-04
2.10000000e+00	2.56833467e-03	1.06397088e-04
2.10500000e+00	2.53869970e-03	1.04984748e-04
2.11000000e+00	2.53831181e-03	1.01019459e-04
2.11500000e+00	2.51531513e-03	9.91423562e-05
2.12000000e+00	2.50678760e-03	9.83142897e-05
2.12500000e+00	2.47423867e-03	9.67598285e-05
2.13000000e+00	2.46769287e-03	9.24487714e-05
2.13500000e+00	2.45680603e-03	9.10101380e-05
2.14000000e+00	2.43388074e-03	8.93763722e-05
2.14500000e+00	2.42462365e-03	8.92398399e-05
2.15000000e+00	2.41815185e-03	8.61237244e-05
2.15500000e+00	2.38290065e-03	8.50094327e-05
2.16000000e+00	2.37121857e-03	8.41677910e-05
2.16500000e+00	2.36085025e-03	8.43799508e-05
2.17000000e+00	2.37846397e-03	8.29007218e-05
2.17500000e+00	2.36005431e-03	8.24336226e-05
2.18000000e+00	2.34315632e-03	8.21584970e-05
2.18500000e+00	2.33519492e-03	8.22557556e-05
2.19000000e+00	2.31943311e-03	8.14460023e-05
2.19500000e+00	2.30157013e-03	8.04434219e-05
2.20000000e+00	2.28076729e-03	7.99033098e-05
2.20500000e+00	2.29236365e-03	8.05010958e-05
2.21000000e+00	2.26597457e-03	7.99714605e-05
2.21500000e+00	2.25949059e-03	7.89397389e-05
2.22000000e+00	2.25399503e-03	7.86146790e-05
2.22500000e+00	2.21296231e-03	7.78739311e-05
2.23000000e+00	2.22703928e-03	7.87623098e-05
2.23500000e+00	2.19571494e-03	7.66562341e-05
2.24000000e+00	2.20239282e-03	7.68909761e-05
2.24500000e+00	2.17526833e-03	7.64265953e-05
2.25000000e+00	2.19091022e-03	7.76697435e-05
2.25500000e+00	2.16371753e-03	7.53123219e-05
2.26000000e+00	2.15520473e-03	7.53083658e-05
2.26500000e+00	2.16134439e-03	7.57432337e-05
2.27000000e+00	2.11186425e-03	7.51168071e-05
2.27500000e+00	2.11757983e-03	7.37490450e-05
2.28000000e+00	2.09476520e-03	7.30447197e-05
2.28500000e+00	2.05621206e-03	7.21053612e-05
2.29000000e+00	2.07036365e-03	7.30653278e-05
2.29500000e+00	2.06654266e-03	7.27671637e-05
2.30000000e+00	2.03488080e-03	7.09006401e-05
2.30500000e+00	2.05117837e-03	7.16233625e-05
2.31000000e+00	2.01833059e-03	7.08866512e-05
2.31500000e+00	2.00853731e-03	7.10827066e-05
2.32000000e+00	2.01091066e-03	6.97733578e-05
2.32500000e+00	1.99192401e-03	6.96637026e-05
2.33000000e+00	1.96331142e-03	6.88516902e-05
2.33500000e+00	1.95666676e-03	6.93586889e-05
2.34000000e+00	1.96098468e-03	6.82361819e-05
2.34500000e+00	1.95666890e-03	6.81417967e-05
2.35000000e+00	1.92261919e-03	6.72392001e-05
2.35500000e+00	1.89792382e-03	6.71670035e-05
2.36000000e+00	1.90678566e-03	6.66875562e-05
2.36500000e+00	1.90014430e-03	6.63156746e-05
2.37000000e+00	1.88621504e-03	6.58892359e-05
2.37500000e+00	1.85161747e-03	6.52577043e-05
2.38000000e+00	1.85477394e-03	6.56276659e-05
2.38500000e+00	1.85724733e-03	6.47487143e-05
2.39000000e+00	1.84160331e-03	6.44762735e-05
2.39500000e+00	1.82283281e-03	6.41873439e-05
2.40000000e+00	1.81155162e-03	6.46666403e-05
2.40500000e+00	1.80142467e-03	6.29745762e-05
2.41000000e+00	1.79181321e-03	6.29747809e-05
2.41500000e+00	1.77930723e-03	6.24928726e-05
2.42000000e+00	1.76509045e-03	6.29167549e-05
2.42500000e+00	1.78461094e-03	6.34179877e-05
2.43000000e+00	1.74934487e-03	6.15910980e-05
2.43500000e+00	1.75918238e-03	6.21749803e-05
2.44000000e+00	1.74401941e-03	6.17351597e-05
2.44500000e+00	1.72344473e-03	6.17427174e-05
2.45000000e+00	1.72659530e-03	6.08350021e-05
2.45500000e+00	1.71729911e-03	6.07200700e-05
2.46000000e+00	1.69680277e-03	6.02398988e-05
2.46500000e+00	1.66701980e-03	5.98983591e-05
2.47000000e+00	1.68395717e-03	5.98610827e-05
2.47500000e+00	1.66111679e-03	5.87380241e-05
2.48000000e+00	1.66181868e-03	5.93827447e-05
2.48500000e+00	1.63574594e-03	5.84436568e-05
2.49000000e+00	1.63466301e-03	5.91953503e-05
2.49500000e+00	1.62711499e-03	5.77488150e-05
2.50000000e+00	1.62518672e-03	5.78152454e-05
2.50500000e+00	1.61917811e-03	5.79408841e-05
2.51000000e+00	1.60136673e-03	5.77603262e-05
2.51500000e+00	1.61081518e-03	5.81475291e-05
2.52000000e+00	1.59010794e-03	5.69127699e-05
2.52500000e+00	1.59630234e-03	5.73608694e-05
2.53000000e+00	1.57480806e-03	5.71399035e-05
2.53500000e+00	1.57414480e-03	5.78262434e-05
2.54000000e+00	1.57986230e-03	5.71126696e-05
2.54500000e+00	1.55731481e-03	5.65119733e-05
2.55000000e+00	1.55021051e-03	5.65166395e-05
2.55500000e+00	1.54423817e-03	5.67553490e-05
2.56000000e+00	1.52782674e-03	5.65123141e-05
2.56500000e+00	1.51439068e-03	5.54326475e-05
2.57000000e+00	1.50680138e-03	5.54398924e-05
2.57500000e+00	1.50994612e-03	5.56471757e-05
2.58000000e+00	1.52581525e-03	5.71146897e-05
2.58500000e+00	1.47396981e-03	5.48368567e-05
2.59000000e+00	1.48724945e-03	5.50309749e-05
2.59500000e+00	1.48766345e-03	5.53047596e-05
2.60000000e+00	1.48262538e-03	5.55719380e-05
2.60500000e+00	1.49306756e-03	5.72180156e-05
2.61000000e+00	1.45811448e-03	6.37241242e-05
2.61500000e+00	1.43194509e-03	6.92769236e-05
2.62000000e+00	1.39960854e-03	7.44510416e-05
2.62500000e+00	1.42803424e-03	8.22130183e-05
2.63000000e+00	1.38087018e-03	8.80432679e-05
2.63500000e+00	1.44288005e-03	1.01671638e-04
2.64000000e+00	1.44920598e-03	1.12339317e-04
2.64500000e+00	1.45276825e-03	1.19880191e-04
2.65000000e+00	1.41521443e-03	1.24177579e-04
2.65500000e+00	1.42586311e-03	1.34103390e-04
2.66000000e+00	1.43080612e-03	1.44116136e-04
2.66500000e+00	1.42464544e-03	1.60741782e-04
2.67000000e+00	1.42046783e-03	1.74628455e-04
2.67500000e+00	1.41710553e-03	2.02821478e-04
2.68000000e+00	1.43848777e-03	2.40754756e-04
2.68500000e+00	1.41626925e-03	3.15414350e-04
2.69000000e+00	1.55789891e-03	5.61745891e-04
2.69500000e+00	0.00000000e+00	0.00000000e+00
2.70000000e+00	0.00000000e+00	0.00000000e+00
