% Filename : WEC8_00040_00037.h5
% Date & Time : 30-Oct-2025 17:52:58
% X-ray Energy (keV) : 13.30001
% Exposure Time (s) : 0.500
% Photodiode Value : 141753.000
% I0 of Sample : 0
% I0 of Standard : 1
% 
% q(A^-1)   I(q)    I(q)_SE
8.40000000e-01	0.00000000e+00	0.00000000e+00
8.45000000e-01	3.08684929e-03	5.40975126e-04
8.50000000e-01	2.99733217e-03	2.78268558e-04
8.55000000e-01	2.97772112e-03	2.43672411e-04
8.60000000e-01	2.95220557e-03	2.08917635e-04
8.65000000e-01	2.92538971e-03	1.90418667e-04
8.70000000e-01	2.96315804e-03	1.83985731e-04
8.75000000e-01	2.97293621e-03	1.77595307e-04
8.80000000e-01	2.97315759e-03	1.71689752e-04
8.85000000e-01	2.97337787e-03	1.62220218e-04
8.90000000e-01	2.97622773e-03	1.59149680e-04
8.95000000e-01	2.98639406e-03	1.55049619e-04
9.00000000e-01	2.96274395e-03	1.52586780e-04
9.05000000e-01	3.01240462e-03	1.48091095e-04
9.10000000e-01	3.05193896e-03	1.47263259e-04
9.15000000e-01	2.99684044e-03	1.42478355e-04
9.20000000e-01	3.03583429e-03	1.44106719e-04
9.25000000e-01	3.03860289e-03	1.37860552e-04
9.30000000e-01	3.02622707e-03	1.36089842e-04
9.35000000e-01	3.00776468e-03	1.32563175e-04
9.40000000e-01	3.04913404e-03	1.34829398e-04
9.45000000e-01	3.05085135e-03	1.31504477e-04
9.50000000e-01	3.07485621e-03	1.30623860e-04
9.55000000e-01	3.04841705e-03	1.27181196e-04
9.60000000e-01	3.06649750e-03	1.28051566e-04
9.65000000e-01	3.07203220e-03	1.26107052e-04
9.70000000e-01	3.05108917e-03	1.23230282e-04
9.75000000e-01	3.08527878e-03	1.23167327e-04
9.80000000e-01	3.07720409e-03	1.21891375e-04
9.85000000e-01	3.08981078e-03	1.22556507e-04
9.90000000e-01	3.09181455e-03	1.18870350e-04
9.95000000e-01	3.08306678e-03	1.17972111e-04
1.00000000e+00	3.12383336e-03	1.18892786e-04
1.00500000e+00	3.08178228e-03	1.17330271e-04
1.01000000e+00	3.07099916e-03	1.14343782e-04
1.01500000e+00	3.10156611e-03	1.14540853e-04
1.02000000e+00	3.08984018e-03	1.13942525e-04
1.02500000e+00	3.09730833e-03	1.12904031e-04
1.03000000e+00	3.06733214e-03	1.11348823e-04
1.03500000e+00	3.08710991e-03	1.10506592e-04
1.04000000e+00	3.05616976e-03	1.08776179e-04
1.04500000e+00	3.05883867e-03	1.08902526e-04
1.05000000e+00	3.06018543e-03	1.08185468e-04
1.05500000e+00	3.05493826e-03	1.06345824e-04
1.06000000e+00	3.04342736e-03	1.05731196e-04
1.06500000e+00	3.07327292e-03	1.06889956e-04
1.07000000e+00	3.06055816e-03	1.06165640e-04
1.07500000e+00	3.08829530e-03	1.06344655e-04
1.08000000e+00	3.08100921e-03	1.05477493e-04
1.08500000e+00	3.09150057e-03	1.06009719e-04
1.09000000e+00	3.10992112e-03	1.07195153e-04
1.09500000e+00	3.11783379e-03	1.05331112e-04
1.10000000e+00	3.13340126e-03	1.06491096e-04
1.10500000e+00	3.13524157e-03	1.06868068e-04
1.11000000e+00	3.14979101e-03	1.07568568e-04
1.11500000e+00	3.16635545e-03	1.07302644e-04
1.12000000e+00	3.18787328e-03	1.08488334e-04
1.12500000e+00	3.17683345e-03	1.07898751e-04
1.13000000e+00	3.17228664e-03	1.08934877e-04
1.13500000e+00	3.19212916e-03	1.08379079e-04
1.14000000e+00	3.19632312e-03	1.08248967e-04
1.14500000e+00	3.22250956e-03	1.10103306e-04
1.15000000e+00	3.24532599e-03	1.11422696e-04
1.15500000e+00	3.26047871e-03	1.10720815e-04
1.16000000e+00	3.22206396e-03	1.09773487e-04
1.16500000e+00	3.25559256e-03	1.10934756e-04
1.17000000e+00	3.26456564e-03	1.12614880e-04
1.17500000e+00	3.27930884e-03	1.11504558e-04
1.18000000e+00	3.27080647e-03	1.11575475e-04
1.18500000e+00	3.28882875e-03	1.12113797e-04
1.19000000e+00	3.28839234e-03	1.13337065e-04
1.19500000e+00	3.31216589e-03	1.12769896e-04
1.20000000e+00	3.30594194e-03	1.13180141e-04
1.20500000e+00	3.34273544e-03	1.14287735e-04
1.21000000e+00	3.34433369e-03	1.15730390e-04
1.21500000e+00	3.34561061e-03	1.13958550e-04
1.22000000e+00	3.37828266e-03	1.15249039e-04
1.22500000e+00	3.34191159e-03	1.14429153e-04
1.23000000e+00	3.35737140e-03	1.15786542e-04
1.23500000e+00	3.38743787e-03	1.16119732e-04
1.24000000e+00	3.37268268e-03	1.15000155e-04
1.24500000e+00	3.41295940e-03	1.17239239e-04
1.25000000e+00	3.40036771e-03	1.17492431e-04
1.25500000e+00	3.39928768e-03	1.16177289e-04
1.26000000e+00	3.42223877e-03	1.17578291e-04
1.26500000e+00	3.40767989e-03	1.16684377e-04
1.27000000e+00	3.44164899e-03	1.19617744e-04
1.27500000e+00	3.44577284e-03	1.18506245e-04
1.28000000e+00	3.45308068e-03	1.17968861e-04
1.28500000e+00	3.45102192e-03	1.18635918e-04
1.29000000e+00	3.48033003e-03	1.20638857e-04
1.29500000e+00	3.45488883e-03	1.18459637e-04
1.30000000e+00	3.45778030e-03	1.18397404e-04
1.30500000e+00	3.49205793e-03	1.20096611e-04
1.31000000e+00	3.49059353e-03	1.21505062e-04
1.31500000e+00	3.50709105e-03	1.20531028e-04
1.32000000e+00	3.52104928e-03	1.20838068e-04
1.32500000e+00	3.53392508e-03	1.21643511e-04
1.33000000e+00	3.53813290e-03	1.23266938e-04
1.33500000e+00	3.52635266e-03	1.21182922e-04
1.34000000e+00	3.56520249e-03	1.22656464e-04
1.34500000e+00	3.56995939e-03	1.23241838e-04
1.35000000e+00	3.55861739e-03	1.24006502e-04
1.35500000e+00	3.57177516e-03	1.22761049e-04
1.36000000e+00	3.57443754e-03	1.22629363e-04
1.36500000e+00	3.58543898e-03	1.23398045e-04
1.37000000e+00	3.57692380e-03	1.25096238e-04
1.37500000e+00	3.60072737e-03	1.23948878e-04
1.38000000e+00	3.57395858e-03	1.23217560e-04
1.38500000e+00	3.56938901e-03	1.23760100e-04
1.39000000e+00	3.58687871e-03	1.25182555e-04
1.39500000e+00	3.57691622e-03	1.23002701e-04
1.40000000e+00	3.62812754e-03	1.28541320e-04
1.40500000e+00	3.59464024e-03	1.37095472e-04
1.41000000e+00	3.56008368e-03	1.42127059e-04
1.41500000e+00	3.55035540e-03	1.46955324e-04
1.42000000e+00	3.51156255e-03	1.51171424e-04
1.42500000e+00	3.49902952e-03	1.55125772e-04
1.43000000e+00	3.48890285e-03	1.60519771e-04
1.43500000e+00	3.47855643e-03	1.64838779e-04
1.44000000e+00	3.44660404e-03	1.69827196e-04
1.44500000e+00	3.43086123e-03	1.73541454e-04
1.45000000e+00	3.51477176e-03	1.71775686e-04
1.45500000e+00	3.53878844e-03	1.55318601e-04
1.46000000e+00	3.53534165e-03	1.51527250e-04
1.46500000e+00	3.49321845e-03	1.47099103e-04
1.47000000e+00	3.47706317e-03	1.46097289e-04
1.47500000e+00	3.48716853e-03	1.42219906e-04
1.48000000e+00	3.47188829e-03	1.40166350e-04
1.48500000e+00	3.47458897e-03	1.40431867e-04
1.49000000e+00	3.45859050e-03	1.40110168e-04
1.49500000e+00	3.48846487e-03	1.38130379e-04
1.50000000e+00	3.43314631e-03	1.35477425e-04
1.50500000e+00	3.45108705e-03	1.36892907e-04
1.51000000e+00	3.46560087e-03	1.37844846e-04
1.51500000e+00	3.46841715e-03	1.35697342e-04
1.52000000e+00	3.48084385e-03	1.35739854e-04
1.52500000e+00	3.45907895e-03	1.34713742e-04
1.53000000e+00	3.43283710e-03	1.34576650e-04
1.53500000e+00	3.41231990e-03	1.29877137e-04
1.54000000e+00	3.43247185e-03	1.30478738e-04
1.54500000e+00	3.40708443e-03	1.29260130e-04
1.55000000e+00	3.41867115e-03	1.29335535e-04
1.55500000e+00	3.40011688e-03	1.25768474e-04
1.56000000e+00	3.37682199e-03	1.25135898e-04
1.56500000e+00	3.33603162e-03	1.22979068e-04
1.57000000e+00	3.33832091e-03	1.22141618e-04
1.57500000e+00	3.33798485e-03	1.19911052e-04
1.58000000e+00	3.35408935e-03	1.20216481e-04
1.58500000e+00	3.31475045e-03	1.18884132e-04
1.59000000e+00	3.31690078e-03	1.19001467e-04
1.59500000e+00	3.29764957e-03	1.16086354e-04
1.60000000e+00	3.28381738e-03	1.15484990e-04
1.60500000e+00	3.27929313e-03	1.15398951e-04
1.61000000e+00	3.31490884e-03	1.16185349e-04
1.61500000e+00	3.26047793e-03	1.13212936e-04
1.62000000e+00	3.25416169e-03	1.13475324e-04
1.62500000e+00	3.25452252e-03	1.14776891e-04
1.63000000e+00	3.26904245e-03	1.14177614e-04
1.63500000e+00	3.27873032e-03	1.14454740e-04
1.64000000e+00	3.24609937e-03	1.13342835e-04
1.64500000e+00	3.22980843e-03	1.14004843e-04
1.65000000e+00	3.23968472e-03	1.13122285e-04
1.65500000e+00	3.23860959e-03	1.12972680e-04
1.66000000e+00	3.23845707e-03	1.13104015e-04
1.66500000e+00	3.23057506e-03	1.14718878e-04
1.67000000e+00	3.22679059e-03	1.12191520e-04
1.67500000e+00	3.21023028e-03	1.11845355e-04
1.68000000e+00	3.20364000e-03	1.12065486e-04
1.68500000e+00	3.19068755e-03	1.13370737e-04
1.69000000e+00	3.17211978e-03	1.10534820e-04
1.69500000e+00	3.17063167e-03	1.10376237e-04
1.70000000e+00	3.18199397e-03	1.12020643e-04
1.70500000e+00	3.15894830e-03	1.11642555e-04
1.71000000e+00	3.14527971e-03	1.09773674e-04
1.71500000e+00	3.14007712e-03	1.09505321e-04
1.72000000e+00	3.14143555e-03	1.10497854e-04
1.72500000e+00	3.11149479e-03	1.10063992e-04
1.73000000e+00	3.12815466e-03	1.09197519e-04
1.73500000e+00	3.09103157e-03	1.08108406e-04
1.74000000e+00	3.09358574e-03	1.08512567e-04
1.74500000e+00	3.09216011e-03	1.09798900e-04
1.75000000e+00	3.06459406e-03	1.06640901e-04
1.75500000e+00	3.08607037e-03	1.08245010e-04
1.76000000e+00	3.04398067e-03	1.06687598e-04
1.76500000e+00	3.04034055e-03	1.07859260e-04
1.77000000e+00	3.02125851e-03	1.05401081e-04
1.77500000e+00	3.02482535e-03	1.05820177e-04
1.78000000e+00	3.01745895e-03	1.05969767e-04
1.78500000e+00	3.00164540e-03	1.06503838e-04
1.79000000e+00	2.99568389e-03	1.04446545e-04
1.79500000e+00	2.99101886e-03	1.04601731e-04
1.80000000e+00	2.98405662e-03	1.04976744e-04
1.80500000e+00	2.95980436e-03	1.04776698e-04
1.81000000e+00	2.97304029e-03	1.03759794e-04
1.81500000e+00	2.97638096e-03	1.03907130e-04
1.82000000e+00	2.95818845e-03	1.04010031e-04
1.82500000e+00	2.96497672e-03	1.04869264e-04
1.83000000e+00	2.93571953e-03	1.02518751e-04
1.83500000e+00	2.95870065e-03	1.03506090e-04
1.84000000e+00	2.94612402e-03	1.03596678e-04
1.84500000e+00	2.89502670e-03	1.02333879e-04
1.85000000e+00	2.90794633e-03	1.01642867e-04
1.85500000e+00	2.90877619e-03	1.01755965e-04
1.86000000e+00	2.89113759e-03	1.01857789e-04
1.86500000e+00	2.88231333e-03	1.01799450e-04
1.87000000e+00	2.90015155e-03	1.01305614e-04
1.87500000e+00	2.87271082e-03	1.00654447e-04
1.88000000e+00	2.85625052e-03	1.00531882e-04
1.88500000e+00	2.84003774e-03	1.00518025e-04
1.89000000e+00	2.83902817e-03	9.90753178e-05
1.89500000e+00	2.82917231e-03	9.92961545e-05
1.90000000e+00	2.81956480e-03	9.92519911e-05
1.90500000e+00	2.82768984e-03	9.95529960e-05
1.91000000e+00	2.81568733e-03	9.85152593e-05
1.91500000e+00	2.82357624e-03	9.88824860e-05
1.92000000e+00	2.81490784e-03	9.91770204e-05
1.92500000e+00	2.79574320e-03	9.85223815e-05
1.93000000e+00	2.79263663e-03	9.75212088e-05
1.93500000e+00	2.78057398e-03	9.73542535e-05
1.94000000e+00	2.81213326e-03	9.93535145e-05
1.94500000e+00	2.76645337e-03	9.73786745e-05
1.95000000e+00	2.75857041e-03	9.62220164e-05
1.95500000e+00	2.74053768e-03	9.60214691e-05
1.96000000e+00	2.72645095e-03	9.61157133e-05
1.96500000e+00	2.71543850e-03	9.57526351e-05
1.97000000e+00	2.72542372e-03	9.50183287e-05
1.97500000e+00	2.70412831e-03	9.49147995e-05
1.98000000e+00	2.69208116e-03	9.48767986e-05
1.98500000e+00	2.67379587e-03	9.43312058e-05
1.99000000e+00	2.68404365e-03	9.35097834e-05
1.99500000e+00	2.65838983e-03	9.30731048e-05
2.00000000e+00	2.65363034e-03	9.35621669e-05
2.00500000e+00	2.68545368e-03	9.48028208e-05
2.01000000e+00	2.65285777e-03	1.02887730e-04
2.01500000e+00	2.63861342e-03	1.08712070e-04
2.02000000e+00	2.63136252e-03	1.15463529e-04
2.02500000e+00	2.60431998e-03	1.18721633e-04
2.03000000e+00	2.58284727e-03	1.24688067e-04
2.03500000e+00	2.58320163e-03	1.30336604e-04
2.04000000e+00	2.57872539e-03	1.36038561e-04
2.04500000e+00	2.54172580e-03	1.41004097e-04
2.05000000e+00	2.54498164e-03	1.48238038e-04
2.05500000e+00	2.57307807e-03	1.47048428e-04
2.06000000e+00	2.58006055e-03	1.28196246e-04
2.06500000e+00	2.55704747e-03	1.21491712e-04
2.07000000e+00	2.57951627e-03	1.16047728e-04
2.07500000e+00	2.62943893e-03	1.17515697e-04
2.08000000e+00	2.53789083e-03	1.11262062e-04
2.08500000e+00	2.54066215e-03	1.10471771e-04
2.09000000e+00	2.52401943e-03	1.06490627e-04
2.09500000e+00	2.51797982e-03	1.05144410e-04
2.10000000e+00	2.49248771e-03	1.03289121e-04
2.10500000e+00	2.50907869e-03	1.03686119e-04
2.11000000e+00	2.47498143e-03	9.85505831e-05
2.11500000e+00	2.46322009e-03	9.71301598e-05
2.12000000e+00	2.47175677e-03	9.69399164e-05
2.12500000e+00	2.45075091e-03	9.58218161e-05
2.13000000e+00	2.41966373e-03	9.06981858e-05
2.13500000e+00	2.39754855e-03	8.88391447e-05
2.14000000e+00	2.37159752e-03	8.70886042e-05
2.14500000e+00	2.36391703e-03	8.70055229e-05
2.15000000e+00	2.34294868e-03	8.33823937e-05
2.15500000e+00	2.34247626e-03	8.35695309e-05
2.16000000e+00	2.33571551e-03	8.28817059e-05
2.16500000e+00	2.33599728e-03	8.35283541e-05
2.17000000e+00	2.31727406e-03	8.07675006e-05
2.17500000e+00	2.31109484e-03	8.07889242e-05
2.18000000e+00	2.30186895e-03	8.08064100e-05
2.18500000e+00	2.29383520e-03	8.08286450e-05
2.19000000e+00	2.27343041e-03	7.98961380e-05
2.19500000e+00	2.28730298e-03	7.99150984e-05
2.20000000e+00	2.25271145e-03	7.88925910e-05
2.20500000e+00	2.25358080e-03	7.92350353e-05
2.21000000e+00	2.23096657e-03	7.87706826e-05
2.21500000e+00	2.22855172e-03	7.78488541e-05
2.22000000e+00	2.21948539e-03	7.74670324e-05
2.22500000e+00	2.20602728e-03	7.76813882e-05
2.23000000e+00	2.19624701e-03	7.76679073e-05
2.23500000e+00	2.17672446e-03	7.59506706e-05
2.24000000e+00	2.16939351e-03	7.57360258e-05
2.24500000e+00	2.16152508e-03	7.59696474e-05
2.25000000e+00	2.15156627e-03	7.62742432e-05
2.25500000e+00	2.12413933e-03	7.39518749e-05
2.26000000e+00	2.08782148e-03	7.29722946e-05
2.26500000e+00	2.08934126e-03	7.33019909e-05
2.27000000e+00	2.08037109e-03	7.40387585e-05
2.27500000e+00	2.07665033e-03	7.23147485e-05
2.28000000e+00	2.06780260e-03	7.21171006e-05
2.28500000e+00	2.03948572e-03	7.15885523e-05
2.29000000e+00	2.03805966e-03	7.18902581e-05
2.29500000e+00	2.03898403e-03	7.18099186e-05
2.30000000e+00	1.99550364e-03	6.95504814e-05
2.30500000e+00	1.99955913e-03	6.98451649e-05
2.31000000e+00	1.98670369e-03	6.97893964e-05
2.31500000e+00	1.98239876e-03	7.02054217e-05
2.32000000e+00	1.97210084e-03	6.84488670e-05
2.32500000e+00	1.95556477e-03	6.83937156e-05
2.33000000e+00	1.94921333e-03	6.82937241e-05
2.33500000e+00	1.92341263e-03	6.81542365e-05
2.34000000e+00	1.89948274e-03	6.61687269e-05
2.34500000e+00	1.89860515e-03	6.61661028e-05
2.35000000e+00	1.89572504e-03	6.62230150e-05
2.35500000e+00	1.88918449e-03	6.69180018e-05
2.36000000e+00	1.87299518e-03	6.54207194e-05
2.36500000e+00	1.86756634e-03	6.51342830e-05
2.37000000e+00	1.83637412e-03	6.40939796e-05
2.37500000e+00	1.82533771e-03	6.43487906e-05
2.38000000e+00	1.81016648e-03	6.40884897e-05
2.38500000e+00	1.80224502e-03	6.28501750e-05
2.39000000e+00	1.79551758e-03	6.28348213e-05
2.39500000e+00	1.79561030e-03	6.31818660e-05
2.40000000e+00	1.78998781e-03	6.38512447e-05
2.40500000e+00	1.76877614e-03	6.19799788e-05
2.41000000e+00	1.75465519e-03	6.16154405e-05
2.41500000e+00	1.75775847e-03	6.17863522e-05
2.42000000e+00	1.74506747e-03	6.21708503e-05
2.42500000e+00	1.76030462e-03	6.25170136e-05
2.43000000e+00	1.76798358e-03	6.21836271e-05
2.43500000e+00	1.73471134e-03	6.13273617e-05
2.44000000e+00	1.70410450e-03	6.02895412e-05
2.44500000e+00	1.69127022e-03	6.06447589e-05
2.45000000e+00	1.67935590e-03	5.91634743e-05
2.45500000e+00	1.66264512e-03	5.87572939e-05
2.46000000e+00	1.64526576e-03	5.84142214e-05
2.46500000e+00	1.63835352e-03	5.88913546e-05
2.47000000e+00	1.63745091e-03	5.82526949e-05
2.47500000e+00	1.63111407e-03	5.76063449e-05
2.48000000e+00	1.61288264e-03	5.75601571e-05
2.48500000e+00	1.62181151e-03	5.78732025e-05
2.49000000e+00	1.59571471e-03	5.77496631e-05
2.49500000e+00	1.59607396e-03	5.66375779e-05
2.50000000e+00	1.57036714e-03	5.59367154e-05
2.50500000e+00	1.56392128e-03	5.59909643e-05
2.51000000e+00	1.55346149e-03	5.59953217e-05
2.51500000e+00	1.56462644e-03	5.64675295e-05
2.52000000e+00	1.54233965e-03	5.52001474e-05
2.52500000e+00	1.55310362e-03	5.58141774e-05
2.53000000e+00	1.59295965e-03	6.32392883e-05
2.53500000e+00	1.55749618e-03	5.77539036e-05
2.54000000e+00	1.52481047e-03	5.50656025e-05
2.54500000e+00	1.51443707e-03	5.49296542e-05
2.55000000e+00	1.50464219e-03	5.48820703e-05
2.55500000e+00	1.48742065e-03	5.45995438e-05
2.56000000e+00	1.50546161e-03	5.56467544e-05
2.56500000e+00	1.48848677e-03	5.44884646e-05
2.57000000e+00	1.49165435e-03	5.48656142e-05
2.57500000e+00	1.46930143e-03	5.41470688e-05
2.58000000e+00	1.46768470e-03	5.49329116e-05
2.58500000e+00	1.45917840e-03	5.41845578e-05
2.59000000e+00	1.44891026e-03	5.36471771e-05
2.59500000e+00	1.43279773e-03	5.33357056e-05
2.60000000e+00	1.44583792e-03	5.42255532e-05
2.60500000e+00	1.45725893e-03	5.58478191e-05
2.61000000e+00	1.42216737e-03	6.20854383e-05
2.61500000e+00	1.43510304e-03	6.92535527e-05
2.62000000e+00	1.42665382e-03	7.56636674e-05
2.62500000e+00	1.39080546e-03	8.00256221e-05
2.63000000e+00	1.37023990e-03	8.73616411e-05
2.63500000e+00	1.39306563e-03	9.80953039e-05
2.64000000e+00	1.42435180e-03	1.10432997e-04
2.64500000e+00	1.42055332e-03	1.17554329e-04
2.65000000e+00	1.42683650e-03	1.24870529e-04
2.65500000e+00	1.42703157e-03	1.34482001e-04
2.66000000e+00	1.36367723e-03	1.37658367e-04
2.66500000e+00	1.41309327e-03	1.59634593e-04
2.67000000e+00	1.35924008e-03	1.66908435e-04
2.67500000e+00	1.32978906e-03	1.91351199e-04
2.68000000e+00	1.37151535e-03	2.28335649e-04
2.68500000e+00	1.28284980e-03	2.81759037e-04
2.69000000e+00	1.50303075e-03	5.38513718e-04
2.69500000e+00	0.00000000e+00	0.00000000e+00
2.70000000e+00	0.00000000e+00	0.00000000e+00
