% Filename : WEC8_00040_00034.h5
% Date & Time : 30-Oct-2025 17:52:50
% X-ray Energy (keV) : 13.30001
% Exposure Time (s) : 0.500
% Photodiode Value : 141491.000
% I0 of Sample : 0
% I0 of Standard : 1
% 
% q(A^-1)   I(q)    I(q)_SE
8.40000000e-01	0.00000000e+00	0.00000000e+00
8.45000000e-01	3.07448508e-03	5.38506495e-04
8.50000000e-01	2.89436415e-03	2.68642740e-04
8.55000000e-01	2.90499101e-03	2.37327004e-04
8.60000000e-01	2.88892528e-03	2.04256904e-04
8.65000000e-01	2.86776333e-03	1.87033325e-04
8.70000000e-01	2.84262277e-03	1.76648183e-04
8.75000000e-01	2.90718531e-03	1.73851116e-04
8.80000000e-01	2.90780212e-03	1.68009898e-04
8.85000000e-01	2.90586525e-03	1.58648515e-04
8.90000000e-01	2.91095189e-03	1.55600354e-04
8.95000000e-01	2.91080954e-03	1.51214120e-04
9.00000000e-01	2.94400116e-03	1.51367583e-04
9.05000000e-01	2.88583221e-03	1.41871080e-04
9.10000000e-01	2.95444765e-03	1.42579306e-04
9.15000000e-01	2.93642311e-03	1.39608258e-04
9.20000000e-01	2.91369347e-03	1.38413614e-04
9.25000000e-01	2.96444669e-03	1.34611730e-04
9.30000000e-01	2.94168195e-03	1.32205876e-04
9.35000000e-01	2.97934268e-03	1.31490612e-04
9.40000000e-01	2.98079393e-03	1.31894945e-04
9.45000000e-01	3.00067253e-03	1.29414971e-04
9.50000000e-01	2.99779634e-03	1.27400212e-04
9.55000000e-01	3.01098994e-03	1.25680702e-04
9.60000000e-01	3.00138305e-03	1.25359025e-04
9.65000000e-01	3.00648564e-03	1.23488808e-04
9.70000000e-01	3.02391449e-03	1.22108489e-04
9.75000000e-01	3.01799958e-03	1.20645491e-04
9.80000000e-01	3.03427796e-03	1.20233448e-04
9.85000000e-01	3.06842456e-03	1.21599754e-04
9.90000000e-01	3.05315793e-03	1.17289936e-04
9.95000000e-01	3.07416813e-03	1.17631152e-04
1.00000000e+00	3.05261822e-03	1.16133789e-04
1.00500000e+00	3.06776317e-03	1.16787022e-04
1.01000000e+00	3.06508849e-03	1.14247500e-04
1.01500000e+00	3.04704450e-03	1.12555139e-04
1.02000000e+00	3.06308701e-03	1.13013901e-04
1.02500000e+00	3.07878759e-03	1.12159703e-04
1.03000000e+00	3.05656883e-03	1.11016890e-04
1.03500000e+00	3.05168793e-03	1.09294790e-04
1.04000000e+00	3.04004603e-03	1.08168365e-04
1.04500000e+00	3.04318440e-03	1.08349297e-04
1.05000000e+00	3.04339008e-03	1.07538960e-04
1.05500000e+00	3.01552929e-03	1.05023109e-04
1.06000000e+00	3.01181768e-03	1.04583620e-04
1.06500000e+00	3.02844111e-03	1.05246269e-04
1.07000000e+00	3.03447616e-03	1.05327082e-04
1.07500000e+00	3.08340707e-03	1.06223538e-04
1.08000000e+00	3.05138153e-03	1.04452627e-04
1.08500000e+00	3.07034247e-03	1.05260836e-04
1.09000000e+00	3.08906100e-03	1.06482184e-04
1.09500000e+00	3.09221661e-03	1.04406093e-04
1.10000000e+00	3.09249183e-03	1.05045016e-04
1.10500000e+00	3.08480406e-03	1.05220962e-04
1.11000000e+00	3.10462949e-03	1.06031360e-04
1.11500000e+00	3.11828101e-03	1.05757470e-04
1.12000000e+00	3.13885780e-03	1.06811896e-04
1.12500000e+00	3.13944575e-03	1.06598718e-04
1.13000000e+00	3.15380168e-03	1.08340586e-04
1.13500000e+00	3.17952174e-03	1.07830757e-04
1.14000000e+00	3.16285148e-03	1.07172663e-04
1.14500000e+00	3.18898271e-03	1.08879264e-04
1.15000000e+00	3.19326944e-03	1.09602028e-04
1.15500000e+00	3.20340836e-03	1.08914710e-04
1.16000000e+00	3.22437135e-03	1.09947726e-04
1.16500000e+00	3.19541283e-03	1.08748838e-04
1.17000000e+00	3.20878198e-03	1.10583825e-04
1.17500000e+00	3.23967759e-03	1.10144798e-04
1.18000000e+00	3.25766550e-03	1.11211170e-04
1.18500000e+00	3.25178004e-03	1.10801469e-04
1.19000000e+00	3.25955033e-03	1.12382279e-04
1.19500000e+00	3.27666156e-03	1.11552424e-04
1.20000000e+00	3.28910346e-03	1.12577059e-04
1.20500000e+00	3.29955484e-03	1.12714578e-04
1.21000000e+00	3.34865472e-03	1.15855714e-04
1.21500000e+00	3.40537469e-03	1.15997991e-04
1.22000000e+00	3.36541999e-03	1.14832330e-04
1.22500000e+00	3.36529825e-03	1.15253074e-04
1.23000000e+00	3.34528004e-03	1.15371143e-04
1.23500000e+00	3.35089548e-03	1.14797571e-04
1.24000000e+00	3.36013670e-03	1.14649416e-04
1.24500000e+00	3.34879875e-03	1.15064062e-04
1.25000000e+00	3.36392709e-03	1.16177839e-04
1.25500000e+00	3.37488770e-03	1.15267447e-04
1.26000000e+00	3.38175806e-03	1.16157530e-04
1.26500000e+00	3.37647402e-03	1.15569245e-04
1.27000000e+00	3.41169699e-03	1.18516556e-04
1.27500000e+00	3.38963732e-03	1.16611453e-04
1.28000000e+00	3.38881250e-03	1.15754129e-04
1.28500000e+00	3.39794108e-03	1.16763487e-04
1.29000000e+00	3.40214155e-03	1.18020623e-04
1.29500000e+00	3.37710757e-03	1.15883927e-04
1.30000000e+00	3.41899252e-03	1.17067304e-04
1.30500000e+00	3.40033055e-03	1.17007591e-04
1.31000000e+00	3.42711992e-03	1.19288159e-04
1.31500000e+00	3.43932658e-03	1.18159856e-04
1.32000000e+00	3.47245251e-03	1.19178995e-04
1.32500000e+00	3.46102154e-03	1.19190240e-04
1.33000000e+00	3.45525774e-03	1.20372861e-04
1.33500000e+00	3.46747902e-03	1.19148766e-04
1.34000000e+00	3.44933168e-03	1.18622085e-04
1.34500000e+00	3.47275881e-03	1.19872737e-04
1.35000000e+00	3.46132763e-03	1.20681983e-04
1.35500000e+00	3.45337442e-03	1.18781025e-04
1.36000000e+00	3.49258444e-03	1.19868599e-04
1.36500000e+00	3.48168902e-03	1.19912533e-04
1.37000000e+00	3.48968774e-03	1.21997549e-04
1.37500000e+00	3.49501473e-03	1.20250594e-04
1.38000000e+00	3.49117687e-03	1.20439851e-04
1.38500000e+00	3.49640249e-03	1.21229103e-04
1.39000000e+00	3.52301109e-03	1.22994840e-04
1.39500000e+00	3.53554779e-03	1.21505808e-04
1.40000000e+00	3.56963337e-03	1.26436919e-04
1.40500000e+00	3.53012084e-03	1.34641041e-04
1.41000000e+00	3.53808165e-03	1.41206125e-04
1.41500000e+00	3.54521417e-03	1.46677901e-04
1.42000000e+00	3.55385909e-03	1.52915063e-04
1.42500000e+00	3.56804151e-03	1.58066788e-04
1.43000000e+00	3.59260677e-03	1.65143852e-04
1.43500000e+00	3.58792819e-03	1.69916616e-04
1.44000000e+00	3.59138700e-03	1.76763014e-04
1.44500000e+00	3.56075700e-03	1.79746381e-04
1.45000000e+00	3.68596161e-03	1.80191632e-04
1.45500000e+00	3.70497530e-03	1.62714140e-04
1.46000000e+00	3.69712425e-03	1.58494401e-04
1.46500000e+00	3.63285579e-03	1.52909545e-04
1.47000000e+00	3.59945518e-03	1.51197735e-04
1.47500000e+00	3.57922580e-03	1.45965137e-04
1.48000000e+00	3.55228418e-03	1.43362287e-04
1.48500000e+00	3.49350103e-03	1.41248322e-04
1.49000000e+00	3.48566468e-03	1.41157822e-04
1.49500000e+00	3.45348016e-03	1.36755327e-04
1.50000000e+00	3.46237612e-03	1.36716564e-04
1.50500000e+00	3.44657132e-03	1.36738794e-04
1.51000000e+00	3.44841378e-03	1.37083532e-04
1.51500000e+00	3.53041057e-03	1.38101326e-04
1.52000000e+00	3.48169143e-03	1.35720160e-04
1.52500000e+00	3.40585677e-03	1.32741712e-04
1.53000000e+00	3.39614392e-03	1.33092119e-04
1.53500000e+00	3.40895343e-03	1.29743293e-04
1.54000000e+00	3.40170135e-03	1.29263850e-04
1.54500000e+00	3.34655259e-03	1.26922435e-04
1.55000000e+00	3.32853947e-03	1.26005387e-04
1.55500000e+00	3.35027292e-03	1.23883671e-04
1.56000000e+00	3.33973596e-03	1.23772391e-04
1.56500000e+00	3.32744368e-03	1.22694612e-04
1.57000000e+00	3.27368827e-03	1.19808097e-04
1.57500000e+00	3.30468969e-03	1.18695318e-04
1.58000000e+00	3.29315468e-03	1.18125754e-04
1.58500000e+00	3.26977380e-03	1.17290882e-04
1.59000000e+00	3.26720406e-03	1.17279726e-04
1.59500000e+00	3.25553164e-03	1.14598193e-04
1.60000000e+00	3.27853950e-03	1.15273904e-04
1.60500000e+00	3.24519239e-03	1.14247250e-04
1.61000000e+00	3.23019891e-03	1.13237457e-04
1.61500000e+00	3.22505933e-03	1.12079899e-04
1.62000000e+00	3.22697446e-03	1.12566079e-04
1.62500000e+00	3.21124560e-03	1.13325003e-04
1.63000000e+00	3.21291467e-03	1.12155750e-04
1.63500000e+00	3.19235478e-03	1.11382494e-04
1.64000000e+00	3.18793432e-03	1.11336098e-04
1.64500000e+00	3.16625957e-03	1.11786754e-04
1.65000000e+00	3.17030507e-03	1.10763662e-04
1.65500000e+00	3.15350330e-03	1.09991551e-04
1.66000000e+00	3.16949317e-03	1.10692591e-04
1.66500000e+00	3.15435235e-03	1.12050707e-04
1.67000000e+00	3.12565378e-03	1.08792820e-04
1.67500000e+00	3.12276799e-03	1.08883720e-04
1.68000000e+00	3.12984522e-03	1.09446445e-04
1.68500000e+00	3.12171101e-03	1.10998210e-04
1.69000000e+00	3.10449773e-03	1.08278411e-04
1.69500000e+00	3.05944884e-03	1.06487099e-04
1.70000000e+00	3.08119009e-03	1.08466540e-04
1.70500000e+00	3.05828077e-03	1.08142620e-04
1.71000000e+00	3.06445826e-03	1.06935773e-04
1.71500000e+00	3.06416645e-03	1.06920563e-04
1.72000000e+00	3.05815601e-03	1.07570786e-04
1.72500000e+00	3.05096522e-03	1.07936333e-04
1.73000000e+00	3.05563447e-03	1.06709112e-04
1.73500000e+00	3.03036206e-03	1.06035477e-04
1.74000000e+00	3.00259367e-03	1.05372971e-04
1.74500000e+00	3.00049419e-03	1.06423067e-04
1.75000000e+00	2.99025118e-03	1.04169714e-04
1.75500000e+00	2.98808830e-03	1.04743492e-04
1.76000000e+00	2.98237028e-03	1.04492778e-04
1.76500000e+00	2.93797322e-03	1.04280831e-04
1.77000000e+00	2.95683246e-03	1.03215597e-04
1.77500000e+00	2.96322664e-03	1.03709280e-04
1.78000000e+00	2.95571100e-03	1.03718869e-04
1.78500000e+00	2.93992372e-03	1.04380895e-04
1.79000000e+00	2.98751194e-03	1.04866949e-04
1.79500000e+00	2.92880354e-03	1.02435245e-04
1.80000000e+00	2.93306767e-03	1.03159710e-04
1.80500000e+00	2.90214768e-03	1.02798396e-04
1.81000000e+00	2.93052949e-03	1.02256622e-04
1.81500000e+00	2.91927123e-03	1.01965918e-04
1.82000000e+00	2.92480322e-03	1.02807947e-04
1.82500000e+00	2.90107715e-03	1.02635556e-04
1.83000000e+00	2.89771105e-03	1.01184702e-04
1.83500000e+00	2.89714596e-03	1.01340061e-04
1.84000000e+00	2.90530474e-03	1.02153510e-04
1.84500000e+00	2.88057738e-03	1.01941089e-04
1.85000000e+00	2.88029477e-03	1.00687854e-04
1.85500000e+00	2.85894788e-03	1.00063324e-04
1.86000000e+00	2.84540327e-03	1.00242671e-04
1.86500000e+00	2.87796618e-03	1.01574199e-04
1.87000000e+00	2.82192851e-03	9.86032004e-05
1.87500000e+00	2.83368932e-03	9.92953192e-05
1.88000000e+00	2.82171975e-03	9.92529398e-05
1.88500000e+00	2.81757520e-03	9.97285870e-05
1.89000000e+00	2.80199864e-03	9.77845441e-05
1.89500000e+00	2.80632192e-03	9.84993477e-05
1.90000000e+00	2.78339387e-03	9.80212705e-05
1.90500000e+00	2.78897664e-03	9.82809020e-05
1.91000000e+00	2.77699088e-03	9.71676577e-05
1.91500000e+00	2.78666680e-03	9.75831731e-05
1.92000000e+00	2.79259589e-03	9.82742751e-05
1.92500000e+00	2.77403031e-03	9.77929428e-05
1.93000000e+00	2.78076285e-03	9.71691447e-05
1.93500000e+00	2.78257846e-03	9.75732158e-05
1.94000000e+00	2.81006742e-03	9.94927647e-05
1.94500000e+00	2.78939358e-03	9.84782625e-05
1.95000000e+00	2.77660452e-03	9.68633601e-05
1.95500000e+00	2.77697482e-03	9.72772543e-05
1.96000000e+00	2.78068103e-03	9.80356929e-05
1.96500000e+00	2.78270971e-03	9.80964670e-05
1.97000000e+00	2.76779141e-03	9.64452878e-05
1.97500000e+00	2.76050440e-03	9.68706700e-05
1.98000000e+00	2.76491185e-03	9.74570504e-05
1.98500000e+00	2.76332003e-03	9.75030605e-05
1.99000000e+00	2.72847127e-03	9.50459567e-05
1.99500000e+00	2.70684916e-03	9.47709937e-05
2.00000000e+00	2.67817988e-03	9.44266257e-05
2.00500000e+00	2.71058026e-03	9.57311125e-05
2.01000000e+00	2.68397159e-03	1.04025801e-04
2.01500000e+00	2.65667404e-03	1.09371186e-04
2.02000000e+00	2.63146988e-03	1.15401106e-04
2.02500000e+00	2.61643102e-03	1.19388922e-04
2.03000000e+00	2.58971369e-03	1.25049398e-04
2.03500000e+00	2.60666771e-03	1.31557852e-04
2.04000000e+00	2.58113121e-03	1.36160004e-04
2.04500000e+00	2.53944153e-03	1.40857194e-04
2.05000000e+00	2.52880316e-03	1.47448093e-04
2.05500000e+00	2.56975303e-03	1.46616655e-04
2.06000000e+00	2.59128306e-03	1.28560538e-04
2.06500000e+00	2.57231767e-03	1.22135383e-04
2.07000000e+00	2.57114022e-03	1.15515080e-04
2.07500000e+00	2.64410514e-03	1.18031540e-04
2.08000000e+00	2.58318282e-03	1.13282845e-04
2.08500000e+00	2.55114108e-03	1.10889667e-04
2.09000000e+00	2.51030571e-03	1.05816788e-04
2.09500000e+00	2.55723858e-03	1.06847023e-04
2.10000000e+00	2.52974394e-03	1.04858003e-04
2.10500000e+00	2.49127966e-03	1.02994231e-04
2.11000000e+00	2.50689174e-03	9.97699292e-05
2.11500000e+00	2.48107955e-03	9.77279841e-05
2.12000000e+00	2.46388030e-03	9.66654517e-05
2.12500000e+00	2.45684765e-03	9.61275947e-05
2.13000000e+00	2.43189175e-03	9.12767109e-05
2.13500000e+00	2.37642935e-03	8.80597596e-05
2.14000000e+00	2.40459781e-03	8.82604088e-05
2.14500000e+00	2.39100837e-03	8.79338565e-05
2.15000000e+00	2.36483731e-03	8.41951424e-05
2.15500000e+00	2.36932690e-03	8.46412176e-05
2.16000000e+00	2.36033429e-03	8.37437472e-05
2.16500000e+00	2.33602625e-03	8.34491480e-05
2.17000000e+00	2.33489195e-03	8.14237193e-05
2.17500000e+00	2.33261685e-03	8.15494121e-05
2.18000000e+00	2.30435416e-03	8.08334230e-05
2.18500000e+00	2.29745306e-03	8.09977275e-05
2.19000000e+00	2.28411095e-03	8.02330881e-05
2.19500000e+00	2.27494375e-03	7.95390908e-05
2.20000000e+00	2.22322642e-03	7.79015287e-05
2.20500000e+00	2.24526356e-03	7.89001418e-05
2.21000000e+00	2.21103949e-03	7.81229998e-05
2.21500000e+00	2.19784073e-03	7.67963206e-05
2.22000000e+00	2.17689738e-03	7.59701318e-05
2.22500000e+00	2.17233950e-03	7.64773806e-05
2.23000000e+00	2.16400559e-03	7.65873885e-05
2.23500000e+00	2.15003058e-03	7.50404965e-05
2.24000000e+00	2.13263375e-03	7.44844564e-05
2.24500000e+00	2.10617247e-03	7.41110485e-05
2.25000000e+00	2.10400208e-03	7.46661827e-05
2.25500000e+00	2.08820769e-03	7.27558940e-05
2.26000000e+00	2.06817648e-03	7.22659127e-05
2.26500000e+00	2.05570991e-03	7.21868145e-05
2.27000000e+00	2.06133948e-03	7.33315570e-05
2.27500000e+00	2.03733152e-03	7.10556216e-05
2.28000000e+00	2.02419607e-03	7.05556465e-05
2.28500000e+00	2.01623193e-03	7.08391415e-05
2.29000000e+00	2.01256691e-03	7.10894112e-05
2.29500000e+00	2.00892056e-03	7.06466804e-05
2.30000000e+00	1.97959991e-03	6.89879480e-05
2.30500000e+00	1.98719997e-03	6.94270462e-05
2.31000000e+00	1.97476386e-03	6.93764746e-05
2.31500000e+00	1.96291072e-03	6.95566428e-05
2.32000000e+00	1.94206178e-03	6.74631547e-05
2.32500000e+00	1.94621449e-03	6.81133689e-05
2.33000000e+00	1.94593521e-03	6.82352266e-05
2.33500000e+00	1.92929492e-03	6.83673035e-05
2.34000000e+00	1.91856100e-03	6.68290896e-05
2.34500000e+00	1.91298915e-03	6.66810679e-05
2.35000000e+00	1.91534666e-03	6.69600502e-05
2.35500000e+00	1.89092512e-03	6.70298529e-05
2.36000000e+00	1.91125398e-03	6.67832568e-05
2.36500000e+00	1.90622472e-03	6.65198299e-05
2.37000000e+00	1.90730688e-03	6.66612059e-05
2.37500000e+00	1.90776528e-03	6.71677529e-05
2.38000000e+00	1.88919229e-03	6.69590187e-05
2.38500000e+00	1.90848847e-03	6.65614281e-05
2.39000000e+00	1.88927115e-03	6.61366442e-05
2.39500000e+00	1.88907704e-03	6.65818429e-05
2.40000000e+00	1.89883943e-03	6.77221053e-05
2.40500000e+00	1.90135941e-03	6.65099244e-05
2.41000000e+00	1.94856380e-03	6.84638431e-05
2.41500000e+00	2.07940591e-03	7.31153873e-05
2.42000000e+00	2.48664915e-03	8.91069072e-05
2.42500000e+00	3.20533457e-03	1.15812448e-04
2.43000000e+00	3.41645833e-03	1.22256208e-04
2.43500000e+00	2.68456572e-03	9.55617924e-05
2.44000000e+00	2.18740971e-03	7.74387647e-05
2.44500000e+00	1.98964420e-03	7.13718912e-05
2.45000000e+00	1.87251875e-03	6.59813297e-05
2.45500000e+00	1.83428474e-03	6.47640974e-05
2.46000000e+00	1.78967358e-03	6.34990742e-05
2.46500000e+00	1.75393924e-03	6.30091221e-05
2.47000000e+00	1.73500172e-03	6.17607012e-05
2.47500000e+00	1.72402690e-03	6.09265225e-05
2.48000000e+00	1.69655848e-03	6.05329730e-05
2.48500000e+00	1.67215295e-03	5.97114823e-05
2.49000000e+00	1.65625069e-03	5.99180484e-05
2.49500000e+00	1.64609534e-03	5.84009112e-05
2.50000000e+00	1.64664229e-03	5.85759758e-05
2.50500000e+00	1.63165468e-03	5.83962558e-05
2.51000000e+00	1.62881881e-03	5.87692280e-05
2.51500000e+00	1.62188582e-03	5.85668694e-05
2.52000000e+00	1.59794187e-03	5.71736059e-05
2.52500000e+00	1.59469903e-03	5.73688350e-05
2.53000000e+00	1.59184786e-03	5.78050040e-05
2.53500000e+00	1.58666590e-03	5.82698717e-05
2.54000000e+00	1.56895285e-03	5.66664727e-05
2.54500000e+00	1.56713627e-03	5.68173181e-05
2.55000000e+00	1.53684960e-03	5.59981943e-05
2.55500000e+00	1.56217386e-03	5.73904783e-05
2.56000000e+00	1.52486928e-03	5.62779848e-05
2.56500000e+00	1.54561278e-03	5.65632188e-05
2.57000000e+00	1.51603743e-03	5.57195125e-05
2.57500000e+00	1.52696061e-03	5.63298746e-05
2.58000000e+00	1.51806416e-03	5.68877890e-05
2.58500000e+00	1.48453945e-03	5.51960132e-05
2.59000000e+00	1.50933458e-03	5.59251503e-05
2.59500000e+00	1.47749331e-03	5.49450248e-05
2.60000000e+00	1.46014822e-03	5.46482138e-05
2.60500000e+00	1.47263322e-03	5.63789618e-05
2.61000000e+00	1.45138768e-03	6.34001616e-05
2.61500000e+00	1.42498305e-03	6.89191731e-05
2.62000000e+00	1.41673201e-03	7.55235606e-05
2.62500000e+00	1.41779673e-03	8.16116590e-05
2.63000000e+00	1.40220388e-03	8.95321726e-05
2.63500000e+00	1.42619796e-03	1.00491187e-04
2.64000000e+00	1.45244660e-03	1.12610729e-04
2.64500000e+00	1.47497832e-03	1.23851595e-04
2.65000000e+00	1.85655363e-03	2.45354310e-04
2.65500000e+00	1.51657688e-03	1.44853239e-04
2.66000000e+00	1.43901884e-03	1.45069908e-04
2.66500000e+00	1.43653513e-03	1.62802785e-04
2.67000000e+00	1.38976733e-03	1.72228122e-04
2.67500000e+00	1.42065914e-03	2.03591266e-04
2.68000000e+00	1.46451622e-03	2.44445283e-04
2.68500000e+00	1.38770501e-03	3.07010166e-04
2.69000000e+00	1.34131600e-03	4.83530705e-04
2.69500000e+00	0.00000000e+00	0.00000000e+00
2.70000000e+00	0.00000000e+00	0.00000000e+00
