% Filename : WEC8_00040_00011.h5
% Date & Time : 30-Oct-2025 17:51:44
% X-ray Energy (keV) : 13.30001
% Exposure Time (s) : 0.500
% Photodiode Value : 140864.000
% I0 of Sample : 0
% I0 of Standard : 1
% 
% q(A^-1)   I(q)    I(q)_SE
8.40000000e-01	0.00000000e+00	0.00000000e+00
8.45000000e-01	3.17896511e-03	5.58537635e-04
8.50000000e-01	2.98137218e-03	2.76289137e-04
8.55000000e-01	2.88191209e-03	2.35497064e-04
8.60000000e-01	2.91281142e-03	2.05824160e-04
8.65000000e-01	2.89556113e-03	1.88591893e-04
8.70000000e-01	2.83897935e-03	1.76389481e-04
8.75000000e-01	2.85700822e-03	1.70694174e-04
8.80000000e-01	2.86508713e-03	1.65424107e-04
8.85000000e-01	2.88982241e-03	1.57798225e-04
8.90000000e-01	2.86040838e-03	1.52946573e-04
8.95000000e-01	2.89671211e-03	1.50523071e-04
9.00000000e-01	2.92681313e-03	1.50630281e-04
9.05000000e-01	2.91338357e-03	1.43374667e-04
9.10000000e-01	2.94522434e-03	1.42125560e-04
9.15000000e-01	2.91250368e-03	1.38514560e-04
9.20000000e-01	2.91326072e-03	1.38441312e-04
9.25000000e-01	2.94094337e-03	1.33586475e-04
9.30000000e-01	2.98155535e-03	1.34086142e-04
9.35000000e-01	2.97586081e-03	1.31214371e-04
9.40000000e-01	2.97087849e-03	1.31426700e-04
9.45000000e-01	2.96974974e-03	1.28122044e-04
9.50000000e-01	2.96434235e-03	1.26033696e-04
9.55000000e-01	2.98515114e-03	1.24663715e-04
9.60000000e-01	2.97343104e-03	1.24350140e-04
9.65000000e-01	2.98203646e-03	1.22512573e-04
9.70000000e-01	2.99558530e-03	1.21154267e-04
9.75000000e-01	2.99160071e-03	1.19729813e-04
9.80000000e-01	3.00101203e-03	1.18918021e-04
9.85000000e-01	2.97910585e-03	1.18214783e-04
9.90000000e-01	2.99242453e-03	1.15165788e-04
9.95000000e-01	2.99777558e-03	1.14797748e-04
1.00000000e+00	2.99518884e-03	1.14139417e-04
1.00500000e+00	2.98927443e-03	1.13821289e-04
1.01000000e+00	3.00439181e-03	1.12061335e-04
1.01500000e+00	2.99827039e-03	1.10805880e-04
1.02000000e+00	3.00557470e-03	1.11003477e-04
1.02500000e+00	2.97706966e-03	1.08638319e-04
1.03000000e+00	3.00587656e-03	1.09329845e-04
1.03500000e+00	2.98991259e-03	1.07094445e-04
1.04000000e+00	2.98073265e-03	1.06173210e-04
1.04500000e+00	3.00098155e-03	1.06916437e-04
1.05000000e+00	2.97867402e-03	1.05492812e-04
1.05500000e+00	2.95253422e-03	1.02905688e-04
1.06000000e+00	2.97689064e-03	1.03471428e-04
1.06500000e+00	2.95934947e-03	1.02952811e-04
1.07000000e+00	2.97530980e-03	1.03352007e-04
1.07500000e+00	3.00125141e-03	1.03492174e-04
1.08000000e+00	2.98863530e-03	1.02533814e-04
1.08500000e+00	3.01374516e-03	1.03576675e-04
1.09000000e+00	2.99275027e-03	1.03300998e-04
1.09500000e+00	3.01305852e-03	1.01914099e-04
1.10000000e+00	3.00962552e-03	1.02434906e-04
1.10500000e+00	3.02610620e-03	1.03310912e-04
1.11000000e+00	3.02749785e-03	1.03534951e-04
1.11500000e+00	3.07941239e-03	1.04460203e-04
1.12000000e+00	3.07340612e-03	1.04820914e-04
1.12500000e+00	3.07495341e-03	1.04459941e-04
1.13000000e+00	3.06452855e-03	1.05471143e-04
1.13500000e+00	3.08266488e-03	1.04737383e-04
1.14000000e+00	3.09868272e-03	1.05083143e-04
1.14500000e+00	3.11284217e-03	1.06508766e-04
1.15000000e+00	3.12951755e-03	1.07614652e-04
1.15500000e+00	3.12796416e-03	1.06286029e-04
1.16000000e+00	3.11896201e-03	1.06419953e-04
1.16500000e+00	3.12675752e-03	1.06550854e-04
1.17000000e+00	3.14386096e-03	1.08435338e-04
1.17500000e+00	3.16541494e-03	1.07687933e-04
1.18000000e+00	3.16109273e-03	1.07992923e-04
1.18500000e+00	3.18624926e-03	1.08774314e-04
1.19000000e+00	3.19843141e-03	1.10272934e-04
1.19500000e+00	3.20979985e-03	1.09280307e-04
1.20000000e+00	3.18792981e-03	1.09168710e-04
1.20500000e+00	3.21448538e-03	1.09932031e-04
1.21000000e+00	3.22320641e-03	1.11644497e-04
1.21500000e+00	3.20807582e-03	1.09335614e-04
1.22000000e+00	3.26064523e-03	1.11212211e-04
1.22500000e+00	3.22474126e-03	1.10493016e-04
1.23000000e+00	3.22992841e-03	1.11406864e-04
1.23500000e+00	3.25062722e-03	1.11473736e-04
1.24000000e+00	3.24619878e-03	1.10870773e-04
1.24500000e+00	3.25850538e-03	1.12069662e-04
1.25000000e+00	3.27971494e-03	1.13527152e-04
1.25500000e+00	3.27845284e-03	1.12000049e-04
1.26000000e+00	3.27498515e-03	1.12565560e-04
1.26500000e+00	3.29271472e-03	1.12740747e-04
1.27000000e+00	3.29901646e-03	1.14668157e-04
1.27500000e+00	3.29390230e-03	1.13300489e-04
1.28000000e+00	3.30752736e-03	1.13157904e-04
1.28500000e+00	3.30129277e-03	1.13523966e-04
1.29000000e+00	3.32596395e-03	1.15332921e-04
1.29500000e+00	3.33909946e-03	1.14504282e-04
1.30000000e+00	3.33365800e-03	1.14200499e-04
1.30500000e+00	3.30122225e-03	1.13579455e-04
1.31000000e+00	3.32561501e-03	1.15829837e-04
1.31500000e+00	3.32263196e-03	1.14240885e-04
1.32000000e+00	3.33005592e-03	1.14422505e-04
1.32500000e+00	3.34556944e-03	1.15344625e-04
1.33000000e+00	3.34463561e-03	1.16641389e-04
1.33500000e+00	3.35176675e-03	1.15322055e-04
1.34000000e+00	3.37927995e-03	1.16339456e-04
1.34500000e+00	3.33965064e-03	1.15399306e-04
1.35000000e+00	3.37380277e-03	1.17702290e-04
1.35500000e+00	3.37325953e-03	1.16118479e-04
1.36000000e+00	3.39531845e-03	1.16613728e-04
1.36500000e+00	3.38890767e-03	1.16899457e-04
1.37000000e+00	3.40178035e-03	1.18947268e-04
1.37500000e+00	3.40317384e-03	1.17233213e-04
1.38000000e+00	3.41250380e-03	1.17809465e-04
1.38500000e+00	3.42033281e-03	1.18766408e-04
1.39000000e+00	3.40599344e-03	1.19066633e-04
1.39500000e+00	3.41742851e-03	1.17646223e-04
1.40000000e+00	3.43593366e-03	1.21940219e-04
1.40500000e+00	3.35965262e-03	1.28353935e-04
1.41000000e+00	3.37412831e-03	1.34828984e-04
1.41500000e+00	3.33815703e-03	1.38294579e-04
1.42000000e+00	3.31665755e-03	1.42862222e-04
1.42500000e+00	3.32835290e-03	1.47491465e-04
1.43000000e+00	3.31802776e-03	1.52728120e-04
1.43500000e+00	3.29101584e-03	1.56106023e-04
1.44000000e+00	3.26961080e-03	1.61137487e-04
1.44500000e+00	3.20750533e-03	1.62171866e-04
1.45000000e+00	3.33867684e-03	1.63300062e-04
1.45500000e+00	3.35115656e-03	1.47242752e-04
1.46000000e+00	3.35080723e-03	1.43792749e-04
1.46500000e+00	3.34557671e-03	1.40881950e-04
1.47000000e+00	3.32522068e-03	1.39879627e-04
1.47500000e+00	3.31614288e-03	1.35372116e-04
1.48000000e+00	3.31243976e-03	1.33750333e-04
1.48500000e+00	3.31018529e-03	1.33845216e-04
1.49000000e+00	3.31862586e-03	1.34473981e-04
1.49500000e+00	3.30189892e-03	1.30928504e-04
1.50000000e+00	3.33174890e-03	1.31589064e-04
1.50500000e+00	3.31737255e-03	1.31731559e-04
1.51000000e+00	3.29837193e-03	1.31268907e-04
1.51500000e+00	3.28574493e-03	1.28651640e-04
1.52000000e+00	3.32692318e-03	1.29820120e-04
1.52500000e+00	3.31405830e-03	1.29170635e-04
1.53000000e+00	3.29913112e-03	1.29309182e-04
1.53500000e+00	3.28883257e-03	1.25257801e-04
1.54000000e+00	3.25607282e-03	1.23787950e-04
1.54500000e+00	3.27227843e-03	1.24200071e-04
1.55000000e+00	3.24539585e-03	1.22791405e-04
1.55500000e+00	3.24698673e-03	1.20094165e-04
1.56000000e+00	3.23738758e-03	1.20079544e-04
1.56500000e+00	3.20636487e-03	1.18260557e-04
1.57000000e+00	3.18421211e-03	1.16631158e-04
1.57500000e+00	3.17849993e-03	1.14183936e-04
1.58000000e+00	3.18329420e-03	1.14172888e-04
1.58500000e+00	3.16843425e-03	1.13615375e-04
1.59000000e+00	3.14799508e-03	1.12974632e-04
1.59500000e+00	3.14523160e-03	1.10758247e-04
1.60000000e+00	3.15480280e-03	1.11012279e-04
1.60500000e+00	3.14374002e-03	1.10664667e-04
1.61000000e+00	3.12873024e-03	1.09794772e-04
1.61500000e+00	3.12364218e-03	1.08518789e-04
1.62000000e+00	3.11125143e-03	1.08567070e-04
1.62500000e+00	3.09853026e-03	1.09353307e-04
1.63000000e+00	3.11042338e-03	1.08601778e-04
1.63500000e+00	3.10791513e-03	1.08465584e-04
1.64000000e+00	3.10736582e-03	1.08496228e-04
1.64500000e+00	3.07415417e-03	1.08550102e-04
1.65000000e+00	3.06778040e-03	1.07219153e-04
1.65500000e+00	3.06207913e-03	1.06902948e-04
1.66000000e+00	3.03575701e-03	1.06014489e-04
1.66500000e+00	3.04324909e-03	1.08112206e-04
1.67000000e+00	3.04631244e-03	1.05961290e-04
1.67500000e+00	3.01025035e-03	1.05043924e-04
1.68000000e+00	3.02601210e-03	1.05846844e-04
1.68500000e+00	3.00465020e-03	1.06873811e-04
1.69000000e+00	3.01084338e-03	1.05017685e-04
1.69500000e+00	2.99591960e-03	1.04315132e-04
1.70000000e+00	2.99119897e-03	1.05340130e-04
1.70500000e+00	2.99933264e-03	1.06124277e-04
1.71000000e+00	2.97466740e-03	1.03915531e-04
1.71500000e+00	2.97101134e-03	1.03705320e-04
1.72000000e+00	2.96152456e-03	1.04183681e-04
1.72500000e+00	2.96549368e-03	1.04929066e-04
1.73000000e+00	2.96265470e-03	1.03517876e-04
1.73500000e+00	2.92346841e-03	1.02353307e-04
1.74000000e+00	2.93478294e-03	1.02976791e-04
1.74500000e+00	2.92139313e-03	1.03777804e-04
1.75000000e+00	2.90782945e-03	1.01266133e-04
1.75500000e+00	2.90600630e-03	1.01870513e-04
1.76000000e+00	2.91169622e-03	1.02032371e-04
1.76500000e+00	2.88724611e-03	1.02576334e-04
1.77000000e+00	2.86581125e-03	1.00020313e-04
1.77500000e+00	2.88861187e-03	1.01111748e-04
1.78000000e+00	2.89273635e-03	1.01563845e-04
1.78500000e+00	2.87481011e-03	1.02007328e-04
1.79000000e+00	2.89767596e-03	1.01135595e-04
1.79500000e+00	2.87233123e-03	1.00462054e-04
1.80000000e+00	2.85925995e-03	1.00627371e-04
1.80500000e+00	2.85115981e-03	1.00991964e-04
1.81000000e+00	2.84301550e-03	9.92039136e-05
1.81500000e+00	2.84201210e-03	9.92640191e-05
1.82000000e+00	2.85101199e-03	1.00210101e-04
1.82500000e+00	2.83696539e-03	1.00450274e-04
1.83000000e+00	2.80453382e-03	9.80050134e-05
1.83500000e+00	2.82323580e-03	9.87827980e-05
1.84000000e+00	2.80672007e-03	9.88110931e-05
1.84500000e+00	2.79673249e-03	9.89839144e-05
1.85000000e+00	2.78555045e-03	9.73968658e-05
1.85500000e+00	2.79566724e-03	9.78088030e-05
1.86000000e+00	2.77968360e-03	9.79661041e-05
1.86500000e+00	2.76792742e-03	9.77202271e-05
1.87000000e+00	2.75648517e-03	9.63099371e-05
1.87500000e+00	2.73903704e-03	9.60410540e-05
1.88000000e+00	2.76089849e-03	9.71342293e-05
1.88500000e+00	2.74701546e-03	9.72598700e-05
1.89000000e+00	2.73032015e-03	9.52962230e-05
1.89500000e+00	2.71709388e-03	9.53777943e-05
1.90000000e+00	2.74259331e-03	9.66123471e-05
1.90500000e+00	2.70851899e-03	9.55316866e-05
1.91000000e+00	2.69853746e-03	9.44842989e-05
1.91500000e+00	2.70430993e-03	9.47191655e-05
1.92000000e+00	2.72460094e-03	9.59520084e-05
1.92500000e+00	2.69465306e-03	9.50044915e-05
1.93000000e+00	2.66237619e-03	9.29864982e-05
1.93500000e+00	2.71647887e-03	9.51924226e-05
1.94000000e+00	2.67776151e-03	9.46227276e-05
1.94500000e+00	2.65500496e-03	9.34991714e-05
1.95000000e+00	2.65107268e-03	9.25734460e-05
1.95500000e+00	2.63067928e-03	9.22444376e-05
1.96000000e+00	2.63572009e-03	9.29272631e-05
1.96500000e+00	2.60303088e-03	9.19451899e-05
1.97000000e+00	2.60616202e-03	9.08852339e-05
1.97500000e+00	2.58561264e-03	9.07830365e-05
1.98000000e+00	2.59104447e-03	9.13299617e-05
1.98500000e+00	2.58132631e-03	9.11142915e-05
1.99000000e+00	2.55850363e-03	8.92738691e-05
1.99500000e+00	2.55673075e-03	8.96200626e-05
2.00000000e+00	2.55144012e-03	9.00578058e-05
2.00500000e+00	2.58248791e-03	9.13890069e-05
2.01000000e+00	2.54142426e-03	9.85539380e-05
2.01500000e+00	2.51687569e-03	1.03761343e-04
2.02000000e+00	2.51071623e-03	1.10228376e-04
2.02500000e+00	2.48779194e-03	1.13628261e-04
2.03000000e+00	2.49485739e-03	1.20633537e-04
2.03500000e+00	2.44263078e-03	1.23346150e-04
2.04000000e+00	2.44399357e-03	1.29156220e-04
2.04500000e+00	2.39824671e-03	1.33333446e-04
2.05000000e+00	2.40270196e-03	1.40042986e-04
2.05500000e+00	2.44488117e-03	1.39474977e-04
2.06000000e+00	2.49248703e-03	1.23900535e-04
2.06500000e+00	2.41811244e-03	1.14860817e-04
2.07000000e+00	2.44453478e-03	1.09997347e-04
2.07500000e+00	2.45430344e-03	1.08291328e-04
2.08000000e+00	2.43475818e-03	1.06894052e-04
2.08500000e+00	2.42558793e-03	1.05622893e-04
2.09000000e+00	2.41278434e-03	1.01815454e-04
2.09500000e+00	2.40747249e-03	1.00559211e-04
2.10000000e+00	2.39845569e-03	9.94894355e-05
2.10500000e+00	2.41259316e-03	9.98417182e-05
2.11000000e+00	2.36030497e-03	9.39769746e-05
2.11500000e+00	2.35628287e-03	9.28125610e-05
2.12000000e+00	2.33620457e-03	9.16511799e-05
2.12500000e+00	2.31698042e-03	9.06643509e-05
2.13000000e+00	2.31932645e-03	8.69702420e-05
2.13500000e+00	2.26583194e-03	8.39873705e-05
2.14000000e+00	2.26373360e-03	8.31524652e-05
2.14500000e+00	2.26704490e-03	8.33990473e-05
2.15000000e+00	2.24775364e-03	8.00293882e-05
2.15500000e+00	2.24335077e-03	8.00314863e-05
2.16000000e+00	2.23897576e-03	7.95280864e-05
2.16500000e+00	2.21519070e-03	7.91934523e-05
2.17000000e+00	2.20815481e-03	7.70051889e-05
2.17500000e+00	2.20146226e-03	7.70159244e-05
2.18000000e+00	2.20121434e-03	7.73009313e-05
2.18500000e+00	2.17729894e-03	7.67342938e-05
2.19000000e+00	2.16090250e-03	7.59405949e-05
2.19500000e+00	2.16108685e-03	7.55350960e-05
2.20000000e+00	2.13405921e-03	7.48073269e-05
2.20500000e+00	2.11763370e-03	7.44531642e-05
2.21000000e+00	2.12829128e-03	7.51678862e-05
2.21500000e+00	2.12304768e-03	7.42226229e-05
2.22000000e+00	2.09458988e-03	7.31774368e-05
2.22500000e+00	2.09327670e-03	7.36998885e-05
2.23000000e+00	2.07374450e-03	7.34415618e-05
2.23500000e+00	2.05792888e-03	7.18631424e-05
2.24000000e+00	2.05935256e-03	7.20380374e-05
2.24500000e+00	2.06057964e-03	7.23606788e-05
2.25000000e+00	2.03390399e-03	7.21965227e-05
2.25500000e+00	2.02788157e-03	7.06706961e-05
2.26000000e+00	2.01643987e-03	7.05238006e-05
2.26500000e+00	1.98994742e-03	6.98650323e-05
2.27000000e+00	1.98270265e-03	7.05997521e-05
2.27500000e+00	1.96839030e-03	6.85868097e-05
2.28000000e+00	1.94401268e-03	6.77989705e-05
2.28500000e+00	1.92424283e-03	6.75790684e-05
2.29000000e+00	1.93506562e-03	6.83771842e-05
2.29500000e+00	1.92989606e-03	6.79224049e-05
2.30000000e+00	1.91148774e-03	6.66904512e-05
2.30500000e+00	1.87982570e-03	6.57640468e-05
2.31000000e+00	1.88063309e-03	6.61210323e-05
2.31500000e+00	1.87576835e-03	6.64799231e-05
2.32000000e+00	1.88250298e-03	6.53347963e-05
2.32500000e+00	1.85144308e-03	6.47904038e-05
2.33000000e+00	1.82977816e-03	6.42110306e-05
2.33500000e+00	1.83203715e-03	6.49420339e-05
2.34000000e+00	1.81578727e-03	6.32778966e-05
2.34500000e+00	1.80288924e-03	6.28408165e-05
2.35000000e+00	1.80644499e-03	6.32144885e-05
2.35500000e+00	1.77945407e-03	6.30961616e-05
2.36000000e+00	1.76836670e-03	6.18711510e-05
2.36500000e+00	1.76433380e-03	6.16044839e-05
2.37000000e+00	1.75012262e-03	6.11244601e-05
2.37500000e+00	1.73400763e-03	6.11102195e-05
2.38000000e+00	1.71899957e-03	6.09272123e-05
2.38500000e+00	1.72321762e-03	6.01834828e-05
2.39000000e+00	1.71597288e-03	6.01092596e-05
2.39500000e+00	1.69401851e-03	5.96489659e-05
2.40000000e+00	1.68680138e-03	6.02668568e-05
2.40500000e+00	1.67062278e-03	5.84722747e-05
2.41000000e+00	1.69077207e-03	5.94426954e-05
2.41500000e+00	1.66077738e-03	5.83448846e-05
2.42000000e+00	1.67617200e-03	5.97559100e-05
2.42500000e+00	1.66150037e-03	5.90288569e-05
2.43000000e+00	1.67711479e-03	5.90991441e-05
2.43500000e+00	1.64555664e-03	5.82107461e-05
2.44000000e+00	1.63433831e-03	5.79164505e-05
2.44500000e+00	1.60281772e-03	5.74277555e-05
2.45000000e+00	1.60897063e-03	5.67598744e-05
2.45500000e+00	1.57877024e-03	5.57899120e-05
2.46000000e+00	1.58140648e-03	5.62034825e-05
2.46500000e+00	1.56425790e-03	5.62355876e-05
2.47000000e+00	1.57087969e-03	5.59390600e-05
2.47500000e+00	1.56447312e-03	5.53478214e-05
2.48000000e+00	1.55012843e-03	5.53637771e-05
2.48500000e+00	1.53683295e-03	5.48235102e-05
2.49000000e+00	1.52552548e-03	5.52009739e-05
2.49500000e+00	1.51167955e-03	5.36199548e-05
2.50000000e+00	1.51650106e-03	5.39988765e-05
2.50500000e+00	1.50216578e-03	5.37803394e-05
2.51000000e+00	1.48346980e-03	5.34921099e-05
2.51500000e+00	1.48498666e-03	5.36253709e-05
2.52000000e+00	1.48095079e-03	5.30338962e-05
2.52500000e+00	1.48261545e-03	5.32684480e-05
2.53000000e+00	1.46450774e-03	5.31971852e-05
2.53500000e+00	1.45464279e-03	5.34893157e-05
2.54000000e+00	1.46067516e-03	5.28092902e-05
2.54500000e+00	1.42932547e-03	5.18641899e-05
2.55000000e+00	1.42466958e-03	5.20107055e-05
2.55500000e+00	1.43397085e-03	5.27582946e-05
2.56000000e+00	1.42302050e-03	5.25300832e-05
2.56500000e+00	1.40994106e-03	5.15721005e-05
2.57000000e+00	1.42013400e-03	5.22468678e-05
2.57500000e+00	1.41101302e-03	5.20733495e-05
2.58000000e+00	1.38095758e-03	5.18162622e-05
2.58500000e+00	1.37794871e-03	5.12846710e-05
2.59000000e+00	1.38007238e-03	5.11077175e-05
2.59500000e+00	1.38151348e-03	5.13825172e-05
2.60000000e+00	1.35327928e-03	5.07496543e-05
2.60500000e+00	1.37418872e-03	5.26872267e-05
2.61000000e+00	1.37844960e-03	6.01881189e-05
2.61500000e+00	1.33851922e-03	6.46709082e-05
2.62000000e+00	1.30136574e-03	6.93701416e-05
2.62500000e+00	1.29426588e-03	7.45701009e-05
2.63000000e+00	1.32996593e-03	8.45362030e-05
2.63500000e+00	1.34264586e-03	9.45963353e-05
2.64000000e+00	1.35066399e-03	1.04831272e-04
2.64500000e+00	1.35302188e-03	1.11659256e-04
2.65000000e+00	1.33269410e-03	1.16910517e-04
2.65500000e+00	1.32907894e-03	1.25194924e-04
2.66000000e+00	1.30431113e-03	1.31530663e-04
2.66500000e+00	1.37352892e-03	1.55924340e-04
2.67000000e+00	1.33016497e-03	1.63456776e-04
2.67500000e+00	1.22303506e-03	1.75502504e-04
2.68000000e+00	1.30554846e-03	2.18932456e-04
2.68500000e+00	1.28329817e-03	2.84630340e-04
2.69000000e+00	1.34722699e-03	4.92204478e-04
2.69500000e+00	0.00000000e+00	0.00000000e+00
2.70000000e+00	0.00000000e+00	0.00000000e+00
