% Filename : WEC8_00040_00008.h5
% Date & Time : 30-Oct-2025 17:51:36
% X-ray Energy (keV) : 13.30001
% Exposure Time (s) : 0.500
% Photodiode Value : 141382.000
% I0 of Sample : 0
% I0 of Standard : 1
% 
% q(A^-1)   I(q)    I(q)_SE
8.40000000e-01	0.00000000e+00	0.00000000e+00
8.45000000e-01	3.14681238e-03	5.51632023e-04
8.50000000e-01	2.94515698e-03	2.73656743e-04
8.55000000e-01	2.89438436e-03	2.36702284e-04
8.60000000e-01	2.87295425e-03	2.02976668e-04
8.65000000e-01	2.87114413e-03	1.87277869e-04
8.70000000e-01	2.85385831e-03	1.77266946e-04
8.75000000e-01	2.87228358e-03	1.71765706e-04
8.80000000e-01	2.84663341e-03	1.64574952e-04
8.85000000e-01	2.88042935e-03	1.57354627e-04
8.90000000e-01	2.87495399e-03	1.53716807e-04
8.95000000e-01	2.89606878e-03	1.50479784e-04
9.00000000e-01	2.90526062e-03	1.49529891e-04
9.05000000e-01	2.91540028e-03	1.43412070e-04
9.10000000e-01	2.90807054e-03	1.40504372e-04
9.15000000e-01	2.92927036e-03	1.39262216e-04
9.20000000e-01	2.92988620e-03	1.39135571e-04
9.25000000e-01	2.92813083e-03	1.33014110e-04
9.30000000e-01	2.94567960e-03	1.32463998e-04
9.35000000e-01	2.93587445e-03	1.29626637e-04
9.40000000e-01	2.95967522e-03	1.30988247e-04
9.45000000e-01	2.92634301e-03	1.26132294e-04
9.50000000e-01	2.95887081e-03	1.25778291e-04
9.55000000e-01	2.93642584e-03	1.22602118e-04
9.60000000e-01	2.97248464e-03	1.24305962e-04
9.65000000e-01	2.96235740e-03	1.21775168e-04
9.70000000e-01	2.99842835e-03	1.21192720e-04
9.75000000e-01	2.99795719e-03	1.19803797e-04
9.80000000e-01	3.01005484e-03	1.19226939e-04
9.85000000e-01	2.99297595e-03	1.18776917e-04
9.90000000e-01	2.99646291e-03	1.15314633e-04
9.95000000e-01	3.01215716e-03	1.15291127e-04
1.00000000e+00	3.00120751e-03	1.14378089e-04
1.00500000e+00	2.99740093e-03	1.14187601e-04
1.01000000e+00	2.98528746e-03	1.11322092e-04
1.01500000e+00	3.01828466e-03	1.11509481e-04
1.02000000e+00	2.98455798e-03	1.10189552e-04
1.02500000e+00	2.96431943e-03	1.08106951e-04
1.03000000e+00	3.01099550e-03	1.09432168e-04
1.03500000e+00	2.98185229e-03	1.06856026e-04
1.04000000e+00	2.98738789e-03	1.06332372e-04
1.04500000e+00	2.96282012e-03	1.05618296e-04
1.05000000e+00	2.97595650e-03	1.05387763e-04
1.05500000e+00	2.94800952e-03	1.02736980e-04
1.06000000e+00	2.97173673e-03	1.03352006e-04
1.06500000e+00	2.98025668e-03	1.03657652e-04
1.07000000e+00	2.97341669e-03	1.03252041e-04
1.07500000e+00	3.01401190e-03	1.03924023e-04
1.08000000e+00	2.99374930e-03	1.02750059e-04
1.08500000e+00	3.00147567e-03	1.03034182e-04
1.09000000e+00	3.00976573e-03	1.03895879e-04
1.09500000e+00	3.02010015e-03	1.02091627e-04
1.10000000e+00	3.01188018e-03	1.02524660e-04
1.10500000e+00	3.04921887e-03	1.04008948e-04
1.11000000e+00	3.03966849e-03	1.04000445e-04
1.11500000e+00	3.05970541e-03	1.03891006e-04
1.12000000e+00	3.07031815e-03	1.04613283e-04
1.12500000e+00	3.05039121e-03	1.03756815e-04
1.13000000e+00	3.07216387e-03	1.05602838e-04
1.13500000e+00	3.07508721e-03	1.04411356e-04
1.14000000e+00	3.11814434e-03	1.05704900e-04
1.14500000e+00	3.12732624e-03	1.06927608e-04
1.15000000e+00	3.13603079e-03	1.07770039e-04
1.15500000e+00	3.12452530e-03	1.06265732e-04
1.16000000e+00	3.13689557e-03	1.07032183e-04
1.16500000e+00	3.15737847e-03	1.07577133e-04
1.17000000e+00	3.15704121e-03	1.08939491e-04
1.17500000e+00	3.16682021e-03	1.07690259e-04
1.18000000e+00	3.18077880e-03	1.08601697e-04
1.18500000e+00	3.17835196e-03	1.08392406e-04
1.19000000e+00	3.19455271e-03	1.10167570e-04
1.19500000e+00	3.20017931e-03	1.08939754e-04
1.20000000e+00	3.21270304e-03	1.10108130e-04
1.20500000e+00	3.22470466e-03	1.10228844e-04
1.21000000e+00	3.19663640e-03	1.10651256e-04
1.21500000e+00	3.22849820e-03	1.10015524e-04
1.22000000e+00	3.23360701e-03	1.10354502e-04
1.22500000e+00	3.22269675e-03	1.10387710e-04
1.23000000e+00	3.24336722e-03	1.11905362e-04
1.23500000e+00	3.27046182e-03	1.12123263e-04
1.24000000e+00	3.27577546e-03	1.11733472e-04
1.24500000e+00	3.24891821e-03	1.11730766e-04
1.25000000e+00	3.25621341e-03	1.12594097e-04
1.25500000e+00	3.27256059e-03	1.11824195e-04
1.26000000e+00	3.25424559e-03	1.11915531e-04
1.26500000e+00	3.28844917e-03	1.12611872e-04
1.27000000e+00	3.30121468e-03	1.14630281e-04
1.27500000e+00	3.26993705e-03	1.12486423e-04
1.28000000e+00	3.29350171e-03	1.12595328e-04
1.28500000e+00	3.32256752e-03	1.14180374e-04
1.29000000e+00	3.29508010e-03	1.14280320e-04
1.29500000e+00	3.28651434e-03	1.12809407e-04
1.30000000e+00	3.31684250e-03	1.13616534e-04
1.30500000e+00	3.29600652e-03	1.13372929e-04
1.31000000e+00	3.32264534e-03	1.15713234e-04
1.31500000e+00	3.32568307e-03	1.14321158e-04
1.32000000e+00	3.31864145e-03	1.14007543e-04
1.32500000e+00	3.31953214e-03	1.14362529e-04
1.33000000e+00	3.32675872e-03	1.15948161e-04
1.33500000e+00	3.36177517e-03	1.15629763e-04
1.34000000e+00	3.35535789e-03	1.15413962e-04
1.34500000e+00	3.35808539e-03	1.16022058e-04
1.35000000e+00	3.36888406e-03	1.17465572e-04
1.35500000e+00	3.38499472e-03	1.16485760e-04
1.36000000e+00	3.36470470e-03	1.15556021e-04
1.36500000e+00	3.38157100e-03	1.16587182e-04
1.37000000e+00	3.37059021e-03	1.17888224e-04
1.37500000e+00	3.41496996e-03	1.17617676e-04
1.38000000e+00	3.39710984e-03	1.17176993e-04
1.38500000e+00	3.38968307e-03	1.17626215e-04
1.39000000e+00	3.37010430e-03	1.17726904e-04
1.39500000e+00	3.39447277e-03	1.16839015e-04
1.40000000e+00	3.42203910e-03	1.21428745e-04
1.40500000e+00	3.39672590e-03	1.29606581e-04
1.41000000e+00	3.32318049e-03	1.32795813e-04
1.41500000e+00	3.33888925e-03	1.38181784e-04
1.42000000e+00	3.30251611e-03	1.42187655e-04
1.42500000e+00	3.31487123e-03	1.47014358e-04
1.43000000e+00	3.31937375e-03	1.52900164e-04
1.43500000e+00	3.28510664e-03	1.55850477e-04
1.44000000e+00	3.23219800e-03	1.59421551e-04
1.44500000e+00	3.23300655e-03	1.63620262e-04
1.45000000e+00	3.33539500e-03	1.63150815e-04
1.45500000e+00	3.35964965e-03	1.47634985e-04
1.46000000e+00	3.33701989e-03	1.43144828e-04
1.46500000e+00	3.33227814e-03	1.40423744e-04
1.47000000e+00	3.36095642e-03	1.41374540e-04
1.47500000e+00	3.31106383e-03	1.35245121e-04
1.48000000e+00	3.31893916e-03	1.34039819e-04
1.48500000e+00	3.31828077e-03	1.34055264e-04
1.49000000e+00	3.31580000e-03	1.34372268e-04
1.49500000e+00	3.31980330e-03	1.31593901e-04
1.50000000e+00	3.27863531e-03	1.29508616e-04
1.50500000e+00	3.30304837e-03	1.31114031e-04
1.51000000e+00	3.31676306e-03	1.32036427e-04
1.51500000e+00	3.42358573e-03	1.34172212e-04
1.52000000e+00	3.40387795e-03	1.32923554e-04
1.52500000e+00	3.32629643e-03	1.29629586e-04
1.53000000e+00	3.29480759e-03	1.29138983e-04
1.53500000e+00	3.31509705e-03	1.26230353e-04
1.54000000e+00	3.29302408e-03	1.25257892e-04
1.54500000e+00	3.29372001e-03	1.24940214e-04
1.55000000e+00	3.26804093e-03	1.23584823e-04
1.55500000e+00	3.25393267e-03	1.20429415e-04
1.56000000e+00	3.23421340e-03	1.19887752e-04
1.56500000e+00	3.22001949e-03	1.18720533e-04
1.57000000e+00	3.18263861e-03	1.16572552e-04
1.57500000e+00	3.20165528e-03	1.15092236e-04
1.58000000e+00	3.16708081e-03	1.13570618e-04
1.58500000e+00	3.17273111e-03	1.13717577e-04
1.59000000e+00	3.17771419e-03	1.14071589e-04
1.59500000e+00	3.14477256e-03	1.10802161e-04
1.60000000e+00	3.13386743e-03	1.10197578e-04
1.60500000e+00	3.13820681e-03	1.10519277e-04
1.61000000e+00	3.11861897e-03	1.09328933e-04
1.61500000e+00	3.12617104e-03	1.08623182e-04
1.62000000e+00	3.11718391e-03	1.08824743e-04
1.62500000e+00	3.11089949e-03	1.09819435e-04
1.63000000e+00	3.10299763e-03	1.08453092e-04
1.63500000e+00	3.09583515e-03	1.08139972e-04
1.64000000e+00	3.08566108e-03	1.07771047e-04
1.64500000e+00	3.07167736e-03	1.08467265e-04
1.65000000e+00	3.07270816e-03	1.07301249e-04
1.65500000e+00	3.07117350e-03	1.07154068e-04
1.66000000e+00	3.08900567e-03	1.07936460e-04
1.66500000e+00	3.04984526e-03	1.08439490e-04
1.67000000e+00	3.05517408e-03	1.06372450e-04
1.67500000e+00	3.04127085e-03	1.06044595e-04
1.68000000e+00	3.03177090e-03	1.06052903e-04
1.68500000e+00	3.02118657e-03	1.07435637e-04
1.69000000e+00	3.03364346e-03	1.05803239e-04
1.69500000e+00	2.99692057e-03	1.04291542e-04
1.70000000e+00	3.01518399e-03	1.06168796e-04
1.70500000e+00	2.97552954e-03	1.05287916e-04
1.71000000e+00	2.97583774e-03	1.03853646e-04
1.71500000e+00	2.97860062e-03	1.03899905e-04
1.72000000e+00	2.97169569e-03	1.04535510e-04
1.72500000e+00	2.96090071e-03	1.04706736e-04
1.73000000e+00	2.94394566e-03	1.02761048e-04
1.73500000e+00	2.96040175e-03	1.03716567e-04
1.74000000e+00	2.93261827e-03	1.02880933e-04
1.74500000e+00	2.94231858e-03	1.04457364e-04
1.75000000e+00	2.91273165e-03	1.01444580e-04
1.75500000e+00	2.93439848e-03	1.02876907e-04
1.76000000e+00	2.90557132e-03	1.01784252e-04
1.76500000e+00	2.89786610e-03	1.02847214e-04
1.77000000e+00	2.88807371e-03	1.00777950e-04
1.77500000e+00	2.89046532e-03	1.01109897e-04
1.78000000e+00	2.87229675e-03	1.00912249e-04
1.78500000e+00	2.86643014e-03	1.01749944e-04
1.79000000e+00	2.89104484e-03	1.00767869e-04
1.79500000e+00	2.87546029e-03	1.00540223e-04
1.80000000e+00	2.85793032e-03	1.00579159e-04
1.80500000e+00	2.87893550e-03	1.02006327e-04
1.81000000e+00	2.86936430e-03	1.00144284e-04
1.81500000e+00	2.88504550e-03	1.00776349e-04
1.82000000e+00	2.87886551e-03	1.01225791e-04
1.82500000e+00	2.85099857e-03	1.00832676e-04
1.83000000e+00	2.85269153e-03	9.96844739e-05
1.83500000e+00	2.84414163e-03	9.95665635e-05
1.84000000e+00	2.82503443e-03	9.93410479e-05
1.84500000e+00	2.83918522e-03	1.00486662e-04
1.85000000e+00	2.82546646e-03	9.88045129e-05
1.85500000e+00	2.81782210e-03	9.85549286e-05
1.86000000e+00	2.81499350e-03	9.91865487e-05
1.86500000e+00	2.80432137e-03	9.90318899e-05
1.87000000e+00	2.78814824e-03	9.73458328e-05
1.87500000e+00	2.77892056e-03	9.73456413e-05
1.88000000e+00	2.77442634e-03	9.76146922e-05
1.88500000e+00	2.75647587e-03	9.75773092e-05
1.89000000e+00	2.75866745e-03	9.63053594e-05
1.89500000e+00	2.75925042e-03	9.67913508e-05
1.90000000e+00	2.73430144e-03	9.62759757e-05
1.90500000e+00	2.74752490e-03	9.67715503e-05
1.91000000e+00	2.73884783e-03	9.58718837e-05
1.91500000e+00	2.74857755e-03	9.62485211e-05
1.92000000e+00	2.72498690e-03	9.60428544e-05
1.92500000e+00	2.70568129e-03	9.53937044e-05
1.93000000e+00	2.73349564e-03	9.54811984e-05
1.93500000e+00	2.71745180e-03	9.52096796e-05
1.94000000e+00	2.71203551e-03	9.57995440e-05
1.94500000e+00	2.71182939e-03	9.55049963e-05
1.95000000e+00	2.67954665e-03	9.35445795e-05
1.95500000e+00	2.68050526e-03	9.39122945e-05
1.96000000e+00	2.63799587e-03	9.30880941e-05
1.96500000e+00	2.64273132e-03	9.32414705e-05
1.97000000e+00	2.63834614e-03	9.19689581e-05
1.97500000e+00	2.63228975e-03	9.24762532e-05
1.98000000e+00	2.58997385e-03	9.12712131e-05
1.98500000e+00	2.59454424e-03	9.15879698e-05
1.99000000e+00	2.59600030e-03	9.04896386e-05
1.99500000e+00	2.59749117e-03	9.10465439e-05
2.00000000e+00	2.55984537e-03	9.02899344e-05
2.00500000e+00	2.57309093e-03	9.09409764e-05
2.01000000e+00	2.58398326e-03	1.00222180e-04
2.01500000e+00	2.55445641e-03	1.05223206e-04
2.02000000e+00	2.53540753e-03	1.11356572e-04
2.02500000e+00	2.49950473e-03	1.14069266e-04
2.03000000e+00	2.49792657e-03	1.20848041e-04
2.03500000e+00	2.52540038e-03	1.27452807e-04
2.04000000e+00	2.47963746e-03	1.30774768e-04
2.04500000e+00	2.47059768e-03	1.37237589e-04
2.05000000e+00	2.44015649e-03	1.42068094e-04
2.05500000e+00	2.48414827e-03	1.41803711e-04
2.06000000e+00	2.48260494e-03	1.23425684e-04
2.06500000e+00	2.45835030e-03	1.16710280e-04
2.07000000e+00	2.43563288e-03	1.09514797e-04
2.07500000e+00	2.45653945e-03	1.08396077e-04
2.08000000e+00	2.45126172e-03	1.07559287e-04
2.08500000e+00	2.47102938e-03	1.07391249e-04
2.09000000e+00	2.43338694e-03	1.02647179e-04
2.09500000e+00	2.40814723e-03	1.00599919e-04
2.10000000e+00	2.42340980e-03	1.00494528e-04
2.10500000e+00	2.40393990e-03	9.93001128e-05
2.11000000e+00	2.40431300e-03	9.57128303e-05
2.11500000e+00	2.36102792e-03	9.30352599e-05
2.12000000e+00	2.33719962e-03	9.16198722e-05
2.12500000e+00	2.31794223e-03	9.05998104e-05
2.13000000e+00	2.30902350e-03	8.65961212e-05
2.13500000e+00	2.31157039e-03	8.56835032e-05
2.14000000e+00	2.29241552e-03	8.41890979e-05
2.14500000e+00	2.25573422e-03	8.30510205e-05
2.15000000e+00	2.24373054e-03	7.98923814e-05
2.15500000e+00	2.25634659e-03	8.04935497e-05
2.16000000e+00	2.23367685e-03	7.92852945e-05
2.16500000e+00	2.22340759e-03	7.94989059e-05
2.17000000e+00	2.22265471e-03	7.75860894e-05
2.17500000e+00	2.20281003e-03	7.70189343e-05
2.18000000e+00	2.20152410e-03	7.72205070e-05
2.18500000e+00	2.18133236e-03	7.69637498e-05
2.19000000e+00	2.16580347e-03	7.62205552e-05
2.19500000e+00	2.16689984e-03	7.57553135e-05
2.20000000e+00	2.15562489e-03	7.55977980e-05
2.20500000e+00	2.15776988e-03	7.57662058e-05
2.21000000e+00	2.12176813e-03	7.49333763e-05
2.21500000e+00	2.12139872e-03	7.41137239e-05
2.22000000e+00	2.09377006e-03	7.31505430e-05
2.22500000e+00	2.10107685e-03	7.39708167e-05
2.23000000e+00	2.07498527e-03	7.35138993e-05
2.23500000e+00	2.06589611e-03	7.21693637e-05
2.24000000e+00	2.05187855e-03	7.16507744e-05
2.24500000e+00	2.04809338e-03	7.20461247e-05
2.25000000e+00	2.02632273e-03	7.18606777e-05
2.25500000e+00	2.03064747e-03	7.07723579e-05
2.26000000e+00	1.99196328e-03	6.97296931e-05
2.26500000e+00	1.99719234e-03	7.00892035e-05
2.27000000e+00	1.97859898e-03	7.04628577e-05
2.27500000e+00	1.97130197e-03	6.87721222e-05
2.28000000e+00	1.94859008e-03	6.80136689e-05
2.28500000e+00	1.94435236e-03	6.82982826e-05
2.29000000e+00	1.92596116e-03	6.80237832e-05
2.29500000e+00	1.91767180e-03	6.75474481e-05
2.30000000e+00	1.90226180e-03	6.63099816e-05
2.30500000e+00	1.90112994e-03	6.64021886e-05
2.31000000e+00	1.88705942e-03	6.63793631e-05
2.31500000e+00	1.86218004e-03	6.59961638e-05
2.32000000e+00	1.87599218e-03	6.51460122e-05
2.32500000e+00	1.85758572e-03	6.50588972e-05
2.33000000e+00	1.84439088e-03	6.46512468e-05
2.33500000e+00	1.83278387e-03	6.49814489e-05
2.34000000e+00	1.81221216e-03	6.31128699e-05
2.34500000e+00	1.81195123e-03	6.31783956e-05
2.35000000e+00	1.79347355e-03	6.26909201e-05
2.35500000e+00	1.77947322e-03	6.31001168e-05
2.36000000e+00	1.78248569e-03	6.23197113e-05
2.36500000e+00	1.75716235e-03	6.14193605e-05
2.37000000e+00	1.75892933e-03	6.14567554e-05
2.37500000e+00	1.75316328e-03	6.17783833e-05
2.38000000e+00	1.73033667e-03	6.13480182e-05
2.38500000e+00	1.73488657e-03	6.05446995e-05
2.39000000e+00	1.72131399e-03	6.02393614e-05
2.39500000e+00	1.69184447e-03	5.95655281e-05
2.40000000e+00	1.70044303e-03	6.07512681e-05
2.40500000e+00	1.67780975e-03	5.88096344e-05
2.41000000e+00	1.67633604e-03	5.89560106e-05
2.41500000e+00	1.66712921e-03	5.86740288e-05
2.42000000e+00	1.65919852e-03	5.91760748e-05
2.42500000e+00	1.65542758e-03	5.88177183e-05
2.43000000e+00	1.66698773e-03	5.87774976e-05
2.43500000e+00	1.63101766e-03	5.76569028e-05
2.44000000e+00	1.63673688e-03	5.80053676e-05
2.44500000e+00	1.61134095e-03	5.77899676e-05
2.45000000e+00	1.59990719e-03	5.63808957e-05
2.45500000e+00	1.59113572e-03	5.62367501e-05
2.46000000e+00	1.58071752e-03	5.61056618e-05
2.46500000e+00	1.57203403e-03	5.65185999e-05
2.47000000e+00	1.57535077e-03	5.60705645e-05
2.47500000e+00	1.54093912e-03	5.45469394e-05
2.48000000e+00	1.54059021e-03	5.50148938e-05
2.48500000e+00	1.52937175e-03	5.45409830e-05
2.49000000e+00	1.54547193e-03	5.58627554e-05
2.49500000e+00	1.52553942e-03	5.42348341e-05
2.50000000e+00	1.50599836e-03	5.35730572e-05
2.50500000e+00	1.49977876e-03	5.37700859e-05
2.51000000e+00	1.48531871e-03	5.35401906e-05
2.51500000e+00	1.49190693e-03	5.39088745e-05
2.52000000e+00	1.47553737e-03	5.28564802e-05
2.52500000e+00	1.48590345e-03	5.34434960e-05
2.53000000e+00	1.47327021e-03	5.35206853e-05
2.53500000e+00	1.44074688e-03	5.28802283e-05
2.54000000e+00	1.45988676e-03	5.27072996e-05
2.54500000e+00	1.44715941e-03	5.25003187e-05
2.55000000e+00	1.42994435e-03	5.21094430e-05
2.55500000e+00	1.41732382e-03	5.20698750e-05
2.56000000e+00	1.40708106e-03	5.19990476e-05
2.56500000e+00	1.40853339e-03	5.16147663e-05
2.57000000e+00	1.40551461e-03	5.17064345e-05
2.57500000e+00	1.38810210e-03	5.11983781e-05
2.58000000e+00	1.37938305e-03	5.17278073e-05
2.58500000e+00	1.36972717e-03	5.09458795e-05
2.59000000e+00	1.36960807e-03	5.07903134e-05
2.59500000e+00	1.37508011e-03	5.11977057e-05
2.60000000e+00	1.36159039e-03	5.10081078e-05
2.60500000e+00	1.37706213e-03	5.27950699e-05
2.61000000e+00	1.36671869e-03	5.96001814e-05
2.61500000e+00	1.35781541e-03	6.56151450e-05
2.62000000e+00	1.32344652e-03	7.03696593e-05
2.62500000e+00	1.31386582e-03	7.57836542e-05
2.63000000e+00	1.33491603e-03	8.51478842e-05
2.63500000e+00	1.34641222e-03	9.48682361e-05
2.64000000e+00	1.34621629e-03	1.04409291e-04
2.64500000e+00	1.34009291e-03	1.11226431e-04
2.65000000e+00	1.37846222e-03	1.21008508e-04
2.65500000e+00	1.34031960e-03	1.26603620e-04
2.66000000e+00	1.34838115e-03	1.36147294e-04
2.66500000e+00	1.32721359e-03	1.50389794e-04
2.67000000e+00	1.30242375e-03	1.60499518e-04
2.67500000e+00	1.28940520e-03	1.85304296e-04
2.68000000e+00	1.23932147e-03	2.06673425e-04
2.68500000e+00	1.33557824e-03	2.96535540e-04
2.69000000e+00	1.35229811e-03	4.80780555e-04
2.69500000e+00	0.00000000e+00	0.00000000e+00
2.70000000e+00	0.00000000e+00	0.00000000e+00
