% Filename : WEC9_00044_00005.h5
% Date & Time : 30-Oct-2025 18:03:56
% X-ray Energy (keV) : 13.30001
% Exposure Time (s) : 0.500
% Photodiode Value : 140683.000
% I0 of Sample : 0
% I0 of Standard : 1
% 
% q(A^-1)   I(q)    I(q)_SE
8.40000000e-01	0.00000000e+00	0.00000000e+00
8.45000000e-01	3.55396705e-03	6.21521757e-04
8.50000000e-01	3.30959786e-03	3.06727313e-04
8.55000000e-01	3.24714245e-03	2.65194663e-04
8.60000000e-01	3.24808775e-03	2.29398897e-04
8.65000000e-01	3.19508191e-03	2.08108283e-04
8.70000000e-01	3.23016737e-03	2.00741485e-04
8.75000000e-01	3.26115961e-03	1.94603584e-04
8.80000000e-01	3.26244016e-03	1.88301429e-04
8.85000000e-01	3.28882745e-03	1.79416448e-04
8.90000000e-01	3.25335385e-03	1.73763887e-04
8.95000000e-01	3.24466739e-03	1.68445006e-04
9.00000000e-01	3.28440827e-03	1.68976291e-04
9.05000000e-01	3.26748567e-03	1.60603659e-04
9.10000000e-01	3.28027993e-03	1.58247670e-04
9.15000000e-01	3.29946865e-03	1.56770589e-04
9.20000000e-01	3.28879414e-03	1.56057076e-04
9.25000000e-01	3.30302616e-03	1.49880178e-04
9.30000000e-01	3.30227110e-03	1.48339846e-04
9.35000000e-01	3.30672233e-03	1.45844257e-04
9.40000000e-01	3.35453808e-03	1.48175758e-04
9.45000000e-01	3.30365069e-03	1.42383722e-04
9.50000000e-01	3.32897960e-03	1.41500623e-04
9.55000000e-01	3.31277689e-03	1.38111664e-04
9.60000000e-01	3.35334574e-03	1.39960530e-04
9.65000000e-01	3.33910227e-03	1.37004476e-04
9.70000000e-01	3.32847582e-03	1.34421040e-04
9.75000000e-01	3.33970716e-03	1.33416192e-04
9.80000000e-01	3.33946452e-03	1.32215311e-04
9.85000000e-01	3.38342827e-03	1.34040804e-04
9.90000000e-01	3.35257146e-03	1.28894838e-04
9.95000000e-01	3.35641628e-03	1.28369351e-04
1.00000000e+00	3.36199970e-03	1.27884482e-04
1.00500000e+00	3.36085988e-03	1.27943118e-04
1.01000000e+00	3.37562485e-03	1.25745052e-04
1.01500000e+00	3.36598051e-03	1.24138054e-04
1.02000000e+00	3.35222577e-03	1.23672130e-04
1.02500000e+00	3.31403633e-03	1.20657739e-04
1.03000000e+00	3.35310392e-03	1.21614435e-04
1.03500000e+00	3.35889621e-03	1.20224341e-04
1.04000000e+00	3.35224050e-03	1.19179866e-04
1.04500000e+00	3.34015585e-03	1.18800183e-04
1.05000000e+00	3.34009248e-03	1.18019288e-04
1.05500000e+00	3.31075097e-03	1.15216867e-04
1.06000000e+00	3.32743699e-03	1.15434675e-04
1.06500000e+00	3.33159429e-03	1.15771283e-04
1.07000000e+00	3.33291612e-03	1.15540977e-04
1.07500000e+00	3.35307318e-03	1.15346205e-04
1.08000000e+00	3.35973805e-03	1.14880499e-04
1.08500000e+00	3.34999742e-03	1.14649141e-04
1.09000000e+00	3.37723412e-03	1.16327912e-04
1.09500000e+00	3.39796670e-03	1.14762144e-04
1.10000000e+00	3.38502302e-03	1.15026388e-04
1.10500000e+00	3.40851721e-03	1.16224733e-04
1.11000000e+00	3.38749150e-03	1.15677430e-04
1.11500000e+00	3.43224929e-03	1.16231247e-04
1.12000000e+00	3.44531783e-03	1.17229281e-04
1.12500000e+00	3.44189311e-03	1.16912287e-04
1.13000000e+00	3.45811151e-03	1.18792000e-04
1.13500000e+00	3.48360965e-03	1.18143414e-04
1.14000000e+00	3.49472411e-03	1.18395750e-04
1.14500000e+00	3.49335309e-03	1.19321885e-04
1.15000000e+00	3.49653543e-03	1.20067901e-04
1.15500000e+00	3.55029604e-03	1.20561682e-04
1.16000000e+00	3.56266960e-03	1.21484482e-04
1.16500000e+00	3.53737172e-03	1.20347101e-04
1.17000000e+00	3.56221136e-03	1.22774396e-04
1.17500000e+00	3.58541361e-03	1.21810721e-04
1.18000000e+00	3.58532840e-03	1.22305861e-04
1.18500000e+00	3.61117180e-03	1.23049612e-04
1.19000000e+00	3.61284074e-03	1.24390761e-04
1.19500000e+00	3.61891691e-03	1.23114246e-04
1.20000000e+00	3.63413155e-03	1.24323405e-04
1.20500000e+00	3.64075067e-03	1.24355819e-04
1.21000000e+00	3.66240827e-03	1.26702236e-04
1.21500000e+00	3.69332884e-03	1.25819549e-04
1.22000000e+00	3.71096525e-03	1.26446498e-04
1.22500000e+00	3.67379159e-03	1.25745668e-04
1.23000000e+00	3.69315888e-03	1.27403870e-04
1.23500000e+00	3.72057239e-03	1.27482809e-04
1.24000000e+00	3.73312896e-03	1.27272379e-04
1.24500000e+00	3.75045204e-03	1.28861538e-04
1.25000000e+00	3.74858124e-03	1.29560416e-04
1.25500000e+00	3.77832695e-03	1.28952266e-04
1.26000000e+00	3.80498986e-03	1.30675386e-04
1.26500000e+00	3.78563589e-03	1.29565125e-04
1.27000000e+00	3.81768922e-03	1.32604013e-04
1.27500000e+00	3.85192327e-03	1.32361248e-04
1.28000000e+00	3.80848405e-03	1.30010318e-04
1.28500000e+00	3.83914113e-03	1.31877183e-04
1.29000000e+00	3.86137943e-03	1.33818693e-04
1.29500000e+00	3.87809265e-03	1.32923035e-04
1.30000000e+00	3.90981885e-03	1.33852611e-04
1.30500000e+00	3.89797611e-03	1.34011009e-04
1.31000000e+00	3.91044864e-03	1.35976600e-04
1.31500000e+00	3.92805237e-03	1.34989467e-04
1.32000000e+00	3.95751613e-03	1.35848902e-04
1.32500000e+00	3.94686703e-03	1.35774549e-04
1.33000000e+00	3.97544193e-03	1.38510771e-04
1.33500000e+00	4.01481802e-03	1.37960847e-04
1.34000000e+00	4.03248665e-03	1.38620322e-04
1.34500000e+00	4.05587406e-03	1.39978586e-04
1.35000000e+00	4.06931430e-03	1.41836889e-04
1.35500000e+00	4.10561546e-03	1.41103647e-04
1.36000000e+00	4.07994710e-03	1.40005164e-04
1.36500000e+00	4.10959169e-03	1.41473226e-04
1.37000000e+00	4.12320780e-03	1.44146647e-04
1.37500000e+00	4.14548021e-03	1.42601428e-04
1.38000000e+00	4.16838053e-03	1.43746788e-04
1.38500000e+00	4.15102919e-03	1.43896436e-04
1.39000000e+00	4.13898031e-03	1.44434109e-04
1.39500000e+00	4.18047509e-03	1.43757388e-04
1.40000000e+00	4.20555214e-03	1.49006959e-04
1.40500000e+00	4.13980748e-03	1.57815101e-04
1.41000000e+00	4.12786012e-03	1.64832327e-04
1.41500000e+00	4.10265575e-03	1.69625565e-04
1.42000000e+00	4.03803910e-03	1.73776584e-04
1.42500000e+00	4.03003896e-03	1.78565486e-04
1.43000000e+00	4.04422202e-03	1.86149531e-04
1.43500000e+00	3.98376452e-03	1.88933414e-04
1.44000000e+00	3.98033383e-03	1.95915415e-04
1.44500000e+00	3.94880109e-03	1.99663255e-04
1.45000000e+00	4.04344798e-03	1.97567472e-04
1.45500000e+00	4.04280280e-03	1.77388250e-04
1.46000000e+00	4.00061368e-03	1.71372853e-04
1.46500000e+00	3.95091944e-03	1.66236819e-04
1.47000000e+00	3.97941664e-03	1.67136355e-04
1.47500000e+00	3.99313457e-03	1.62855669e-04
1.48000000e+00	3.95866889e-03	1.59625336e-04
1.48500000e+00	3.95482737e-03	1.59680481e-04
1.49000000e+00	3.94924538e-03	1.59836616e-04
1.49500000e+00	3.93570325e-03	1.55800508e-04
1.50000000e+00	3.89922903e-03	1.53823667e-04
1.50500000e+00	3.92971764e-03	1.55946394e-04
1.51000000e+00	3.91308978e-03	1.55624761e-04
1.51500000e+00	3.92060898e-03	1.53409242e-04
1.52000000e+00	3.93288050e-03	1.53218988e-04
1.52500000e+00	3.91771437e-03	1.52530741e-04
1.53000000e+00	3.91540270e-03	1.53311660e-04
1.53500000e+00	3.89248454e-03	1.48125228e-04
1.54000000e+00	3.89937948e-03	1.48174984e-04
1.54500000e+00	3.85900758e-03	1.46295700e-04
1.55000000e+00	3.85784354e-03	1.45821172e-04
1.55500000e+00	3.83412607e-03	1.41652592e-04
1.56000000e+00	3.84813494e-03	1.42531746e-04
1.56500000e+00	3.76273259e-03	1.38606685e-04
1.57000000e+00	3.77453017e-03	1.38040738e-04
1.57500000e+00	3.76633295e-03	1.35240970e-04
1.58000000e+00	3.74135900e-03	1.34097334e-04
1.58500000e+00	3.74058147e-03	1.34158554e-04
1.59000000e+00	3.72049760e-03	1.33407978e-04
1.59500000e+00	3.69525013e-03	1.29992271e-04
1.60000000e+00	3.70550897e-03	1.30263960e-04
1.60500000e+00	3.72612638e-03	1.31064776e-04
1.61000000e+00	3.71997888e-03	1.30344133e-04
1.61500000e+00	3.67995205e-03	1.27752961e-04
1.62000000e+00	3.70502724e-03	1.29178935e-04
1.62500000e+00	3.70749133e-03	1.30766375e-04
1.63000000e+00	3.69652509e-03	1.28900804e-04
1.63500000e+00	3.70332386e-03	1.29126859e-04
1.64000000e+00	3.71217914e-03	1.29608249e-04
1.64500000e+00	3.68651058e-03	1.30071924e-04
1.65000000e+00	3.67058353e-03	1.28140761e-04
1.65500000e+00	3.67738743e-03	1.28235690e-04
1.66000000e+00	3.68509348e-03	1.28582293e-04
1.66500000e+00	3.69923946e-03	1.31281848e-04
1.67000000e+00	3.68199291e-03	1.28010271e-04
1.67500000e+00	3.67826449e-03	1.28196871e-04
1.68000000e+00	3.63636227e-03	1.27056959e-04
1.68500000e+00	3.64480915e-03	1.29540251e-04
1.69000000e+00	3.64002446e-03	1.26821479e-04
1.69500000e+00	3.60223832e-03	1.25312474e-04
1.70000000e+00	3.61683356e-03	1.27277750e-04
1.70500000e+00	3.60165147e-03	1.27253835e-04
1.71000000e+00	3.59299166e-03	1.25326631e-04
1.71500000e+00	3.57554011e-03	1.24658096e-04
1.72000000e+00	3.57627312e-03	1.25728065e-04
1.72500000e+00	3.57511437e-03	1.26359383e-04
1.73000000e+00	3.55987202e-03	1.24150203e-04
1.73500000e+00	3.52585186e-03	1.23317595e-04
1.74000000e+00	3.51718531e-03	1.23366950e-04
1.74500000e+00	3.51648822e-03	1.24780439e-04
1.75000000e+00	3.50286539e-03	1.21921983e-04
1.75500000e+00	3.44794697e-03	1.20834536e-04
1.76000000e+00	3.46211262e-03	1.21263284e-04
1.76500000e+00	3.46949632e-03	1.23086310e-04
1.77000000e+00	3.43101711e-03	1.19614939e-04
1.77500000e+00	3.43017959e-03	1.19942906e-04
1.78000000e+00	3.40441220e-03	1.19396447e-04
1.78500000e+00	3.40951249e-03	1.20852587e-04
1.79000000e+00	3.36793324e-03	1.17322823e-04
1.79500000e+00	3.39113508e-03	1.18552635e-04
1.80000000e+00	3.34338628e-03	1.17588324e-04
1.80500000e+00	3.34555687e-03	1.18489189e-04
1.81000000e+00	3.35216596e-03	1.16876926e-04
1.81500000e+00	3.31601577e-03	1.15665137e-04
1.82000000e+00	3.32817854e-03	1.16897483e-04
1.82500000e+00	3.31661537e-03	1.17232455e-04
1.83000000e+00	3.30854613e-03	1.15463190e-04
1.83500000e+00	3.30638273e-03	1.15587315e-04
1.84000000e+00	3.30535166e-03	1.16239182e-04
1.84500000e+00	3.28751465e-03	1.16181390e-04
1.85000000e+00	3.28830585e-03	1.14881658e-04
1.85500000e+00	3.26314192e-03	1.14078929e-04
1.86000000e+00	3.22620618e-03	1.13491147e-04
1.86500000e+00	3.23569758e-03	1.14244882e-04
1.87000000e+00	3.21254485e-03	1.12126141e-04
1.87500000e+00	3.19729278e-03	1.11948611e-04
1.88000000e+00	3.18359013e-03	1.11991098e-04
1.88500000e+00	3.17990647e-03	1.12483962e-04
1.89000000e+00	3.18634886e-03	1.11210174e-04
1.89500000e+00	3.16925063e-03	1.11134237e-04
1.90000000e+00	3.16000919e-03	1.11192103e-04
1.90500000e+00	3.17527169e-03	1.11796958e-04
1.91000000e+00	3.14396576e-03	1.09954864e-04
1.91500000e+00	3.14120556e-03	1.09936680e-04
1.92000000e+00	3.11657707e-03	1.09617125e-04
1.92500000e+00	3.12327175e-03	1.10070022e-04
1.93000000e+00	3.12168920e-03	1.08950888e-04
1.93500000e+00	3.13966429e-03	1.09913828e-04
1.94000000e+00	3.11092413e-03	1.09952447e-04
1.94500000e+00	3.08793308e-03	1.09221360e-04
1.95000000e+00	3.08229135e-03	1.07496809e-04
1.95500000e+00	3.06285424e-03	1.07270489e-04
1.96000000e+00	3.05952512e-03	1.07767971e-04
1.96500000e+00	3.03997907e-03	1.07230838e-04
1.97000000e+00	3.04133478e-03	1.05963516e-04
1.97500000e+00	3.03349919e-03	1.06416646e-04
1.98000000e+00	3.00695748e-03	1.05927330e-04
1.98500000e+00	2.99469085e-03	1.05683178e-04
1.99000000e+00	2.98565289e-03	1.04032565e-04
1.99500000e+00	2.98723548e-03	1.04519995e-04
2.00000000e+00	2.95504400e-03	1.04168444e-04
2.00500000e+00	2.97119609e-03	1.05022147e-04
2.01000000e+00	2.97160492e-03	1.15292851e-04
2.01500000e+00	2.94104140e-03	1.21118723e-04
2.02000000e+00	2.92132321e-03	1.28204903e-04
2.02500000e+00	2.89308774e-03	1.31832634e-04
2.03000000e+00	2.89643973e-03	1.39953674e-04
2.03500000e+00	2.86764361e-03	1.44806011e-04
2.04000000e+00	2.82457075e-03	1.49016580e-04
2.04500000e+00	2.82402489e-03	1.56736606e-04
2.05000000e+00	2.81150088e-03	1.63698140e-04
2.05500000e+00	2.84442976e-03	1.62703216e-04
2.06000000e+00	2.88186404e-03	1.43082304e-04
2.06500000e+00	2.85992529e-03	1.35823978e-04
2.07000000e+00	2.87135786e-03	1.29061670e-04
2.07500000e+00	2.81233773e-03	1.23593344e-04
2.08000000e+00	2.82134022e-03	1.23735148e-04
2.08500000e+00	2.81722479e-03	1.22475966e-04
2.09000000e+00	2.84705992e-03	1.20026505e-04
2.09500000e+00	2.83412759e-03	1.18205903e-04
2.10000000e+00	2.83091119e-03	1.17264379e-04
2.10500000e+00	2.80880230e-03	1.15977182e-04
2.11000000e+00	2.79003363e-03	1.11004157e-04
2.11500000e+00	2.80240983e-03	1.10315617e-04
2.12000000e+00	2.74467384e-03	1.07570826e-04
2.12500000e+00	2.74625767e-03	1.07262818e-04
2.13000000e+00	2.70768142e-03	1.01384247e-04
2.13500000e+00	2.70038761e-03	9.99685593e-05
2.14000000e+00	2.67049669e-03	9.79787344e-05
2.14500000e+00	2.66267755e-03	9.79794425e-05
2.15000000e+00	2.64074187e-03	9.39765551e-05
2.15500000e+00	2.64919755e-03	9.44061807e-05
2.16000000e+00	2.63168080e-03	9.33099043e-05
2.16500000e+00	2.60556523e-03	9.30492307e-05
2.17000000e+00	2.60804088e-03	9.09551958e-05
2.17500000e+00	2.60581079e-03	9.10506462e-05
2.18000000e+00	2.58936255e-03	9.07632000e-05
2.18500000e+00	2.58399694e-03	9.09921841e-05
2.19000000e+00	2.56289506e-03	8.99960200e-05
2.19500000e+00	2.54254416e-03	8.88032819e-05
2.20000000e+00	2.54108917e-03	8.89320547e-05
2.20500000e+00	2.51799276e-03	8.84263036e-05
2.21000000e+00	2.52475813e-03	8.91231391e-05
2.21500000e+00	2.50773761e-03	8.74582413e-05
2.22000000e+00	2.49219175e-03	8.68515912e-05
2.22500000e+00	2.47512720e-03	8.70922581e-05
2.23000000e+00	2.46498205e-03	8.71793933e-05
2.23500000e+00	2.44530568e-03	8.51612453e-05
2.24000000e+00	2.44571908e-03	8.53783912e-05
2.24500000e+00	2.41686629e-03	8.48642800e-05
2.25000000e+00	2.41892046e-03	8.57119135e-05
2.25500000e+00	2.39285715e-03	8.32514050e-05
2.26000000e+00	2.39745833e-03	8.37182011e-05
2.26500000e+00	2.38520979e-03	8.35817504e-05
2.27000000e+00	2.36360865e-03	8.40546236e-05
2.27500000e+00	2.36054922e-03	8.22953476e-05
2.28000000e+00	2.34736988e-03	8.18670700e-05
2.28500000e+00	2.32452495e-03	8.16274345e-05
2.29000000e+00	2.29386993e-03	8.09632491e-05
2.29500000e+00	2.28646144e-03	8.05301057e-05
2.30000000e+00	2.28328774e-03	7.96681579e-05
2.30500000e+00	2.24717702e-03	7.86296416e-05
2.31000000e+00	2.24956656e-03	7.91318349e-05
2.31500000e+00	2.22210699e-03	7.89104419e-05
2.32000000e+00	2.22808729e-03	7.73611487e-05
2.32500000e+00	2.21659061e-03	7.76619342e-05
2.33000000e+00	2.18957285e-03	7.69111755e-05
2.33500000e+00	2.16782313e-03	7.69168223e-05
2.34000000e+00	2.16786196e-03	7.56851849e-05
2.34500000e+00	2.15110839e-03	7.51455234e-05
2.35000000e+00	2.12085864e-03	7.43518987e-05
2.35500000e+00	2.10212946e-03	7.46336902e-05
2.36000000e+00	2.09562663e-03	7.34460116e-05
2.36500000e+00	2.08524283e-03	7.30737073e-05
2.37000000e+00	2.06769415e-03	7.24531309e-05
2.37500000e+00	2.05586807e-03	7.26024945e-05
2.38000000e+00	2.01710141e-03	7.16630324e-05
2.38500000e+00	2.03951600e-03	7.13487898e-05
2.39000000e+00	2.00261793e-03	7.03311776e-05
2.39500000e+00	2.00133708e-03	7.05574826e-05
2.40000000e+00	1.99583007e-03	7.14548842e-05
2.40500000e+00	1.97863008e-03	6.93710911e-05
2.41000000e+00	1.95927746e-03	6.89821455e-05
2.41500000e+00	1.95349717e-03	6.88345159e-05
2.42000000e+00	1.94757049e-03	6.95385825e-05
2.42500000e+00	1.92708921e-03	6.86378273e-05
2.43000000e+00	1.91853768e-03	6.77289543e-05
2.43500000e+00	1.92545175e-03	6.83173461e-05
2.44000000e+00	1.87548545e-03	6.67438676e-05
2.44500000e+00	1.87723109e-03	6.75308581e-05
2.45000000e+00	1.88759315e-03	6.67452736e-05
2.45500000e+00	1.85970555e-03	6.59650220e-05
2.46000000e+00	1.85007370e-03	6.59458604e-05
2.46500000e+00	1.82263470e-03	6.57876211e-05
2.47000000e+00	1.80682238e-03	6.44846236e-05
2.47500000e+00	1.81255166e-03	6.43748848e-05
2.48000000e+00	1.78565619e-03	6.40504444e-05
2.48500000e+00	1.80089565e-03	6.45248191e-05
2.49000000e+00	1.77451986e-03	6.45537774e-05
2.49500000e+00	1.75974548e-03	6.27286829e-05
2.50000000e+00	1.76662162e-03	6.31088025e-05
2.50500000e+00	1.73937898e-03	6.25297022e-05
2.51000000e+00	1.74084129e-03	6.30792247e-05
2.51500000e+00	1.72794815e-03	6.26546015e-05
2.52000000e+00	1.72290751e-03	6.19495129e-05
2.52500000e+00	1.71923680e-03	6.21890946e-05
2.53000000e+00	1.70022655e-03	6.19564943e-05
2.53500000e+00	1.67276924e-03	6.17716384e-05
2.54000000e+00	1.70187371e-03	6.17717695e-05
2.54500000e+00	1.66366693e-03	6.06608967e-05
2.55000000e+00	1.66217363e-03	6.08484449e-05
2.55500000e+00	1.64775689e-03	6.08356976e-05
2.56000000e+00	1.63965170e-03	6.10059044e-05
2.56500000e+00	1.62141830e-03	5.96618903e-05
2.57000000e+00	1.63409339e-03	6.03529671e-05
2.57500000e+00	1.60782322e-03	5.95626102e-05
2.58000000e+00	1.56589857e-03	5.89839280e-05
2.58500000e+00	1.59215342e-03	5.96701855e-05
2.59000000e+00	1.56034003e-03	5.80746003e-05
2.59500000e+00	1.54887933e-03	5.78862908e-05
2.60000000e+00	1.53103499e-03	5.76450022e-05
2.60500000e+00	1.52389245e-03	5.87306738e-05
2.61000000e+00	1.48334942e-03	6.52122082e-05
2.61500000e+00	1.45471436e-03	7.10268583e-05
2.62000000e+00	1.46971930e-03	7.86614602e-05
2.62500000e+00	1.46269982e-03	8.44395013e-05
2.63000000e+00	1.47474406e-03	9.42160459e-05
2.63500000e+00	1.47772537e-03	1.04003422e-04
2.64000000e+00	1.44898190e-03	1.12926450e-04
2.64500000e+00	1.46254250e-03	1.21803617e-04
2.65000000e+00	1.38482314e-03	1.22207365e-04
2.65500000e+00	1.34919548e-03	1.27593595e-04
2.66000000e+00	1.22907700e-03	1.25356514e-04
2.66500000e+00	1.17277636e-03	1.34249588e-04
2.67000000e+00	1.08706946e-03	1.34210222e-04
2.67500000e+00	1.06437094e-03	1.53190454e-04
2.68000000e+00	1.07435807e-03	1.81006575e-04
2.68500000e+00	1.09211187e-03	2.44043705e-04
2.69000000e+00	1.24369174e-03	4.45344221e-04
2.69500000e+00	0.00000000e+00	0.00000000e+00
2.70000000e+00	0.00000000e+00	0.00000000e+00
