% Filename : WEC9_00044_00008.h5
% Date & Time : 30-Oct-2025 18:04:05
% X-ray Energy (keV) : 13.30001
% Exposure Time (s) : 0.500
% Photodiode Value : 140406.000
% I0 of Sample : 0
% I0 of Standard : 1
% 
% q(A^-1)   I(q)    I(q)_SE
8.40000000e-01	0.00000000e+00	0.00000000e+00
8.45000000e-01	3.68850107e-03	6.44082003e-04
8.50000000e-01	3.53076260e-03	3.26913286e-04
8.55000000e-01	3.48659960e-03	2.84242095e-04
8.60000000e-01	3.43508810e-03	2.42486047e-04
8.65000000e-01	3.45850288e-03	2.25129607e-04
8.70000000e-01	3.44729779e-03	2.13666950e-04
8.75000000e-01	3.47609661e-03	2.07694051e-04
8.80000000e-01	3.44739140e-03	1.99149226e-04
8.85000000e-01	3.45846844e-03	1.88635664e-04
8.90000000e-01	3.43438762e-03	1.83444089e-04
8.95000000e-01	3.46285032e-03	1.79700984e-04
9.00000000e-01	3.46295712e-03	1.77939392e-04
9.05000000e-01	3.46926440e-03	1.70487330e-04
9.10000000e-01	3.48349900e-03	1.68018954e-04
9.15000000e-01	3.49156263e-03	1.65694487e-04
9.20000000e-01	3.49451033e-03	1.65722225e-04
9.25000000e-01	3.52820603e-03	1.60082302e-04
9.30000000e-01	3.49291820e-03	1.57010023e-04
9.35000000e-01	3.52547728e-03	1.55239954e-04
9.40000000e-01	3.53802262e-03	1.56240025e-04
9.45000000e-01	3.53791299e-03	1.52481374e-04
9.50000000e-01	3.51640940e-03	1.49278721e-04
9.55000000e-01	3.52217231e-03	1.46779101e-04
9.60000000e-01	3.54934671e-03	1.48060591e-04
9.65000000e-01	3.55778082e-03	1.46065008e-04
9.70000000e-01	3.53131503e-03	1.42517232e-04
9.75000000e-01	3.54604679e-03	1.41475972e-04
9.80000000e-01	3.54156899e-03	1.40182140e-04
9.85000000e-01	3.55796553e-03	1.41000205e-04
9.90000000e-01	3.58359149e-03	1.37663652e-04
9.95000000e-01	3.53667966e-03	1.35112997e-04
1.00000000e+00	3.56587402e-03	1.35610567e-04
1.00500000e+00	3.56863083e-03	1.35813905e-04
1.01000000e+00	3.56941536e-03	1.32805161e-04
1.01500000e+00	3.56247561e-03	1.31299519e-04
1.02000000e+00	3.55037751e-03	1.30727403e-04
1.02500000e+00	3.55857528e-03	1.29384608e-04
1.03000000e+00	3.55617668e-03	1.28879538e-04
1.03500000e+00	3.58107535e-03	1.27994239e-04
1.04000000e+00	3.58554729e-03	1.27180241e-04
1.04500000e+00	3.55534757e-03	1.26143943e-04
1.05000000e+00	3.57415645e-03	1.26013382e-04
1.05500000e+00	3.53029911e-03	1.22433597e-04
1.06000000e+00	3.53697557e-03	1.22478695e-04
1.06500000e+00	3.57173277e-03	1.23796342e-04
1.07000000e+00	3.58139244e-03	1.23894577e-04
1.07500000e+00	3.59548968e-03	1.23465724e-04
1.08000000e+00	3.62410394e-03	1.23691821e-04
1.08500000e+00	3.61693833e-03	1.23674984e-04
1.09000000e+00	3.60812990e-03	1.24023910e-04
1.09500000e+00	3.61323144e-03	1.21822010e-04
1.10000000e+00	3.64311234e-03	1.23507031e-04
1.10500000e+00	3.66072846e-03	1.24517156e-04
1.11000000e+00	3.67184012e-03	1.25148844e-04
1.11500000e+00	3.70636289e-03	1.25334049e-04
1.12000000e+00	3.70405652e-03	1.25709153e-04
1.12500000e+00	3.70143409e-03	1.25412189e-04
1.13000000e+00	3.72159225e-03	1.27585563e-04
1.13500000e+00	3.74181972e-03	1.26753510e-04
1.14000000e+00	3.74326978e-03	1.26565724e-04
1.14500000e+00	3.76313934e-03	1.28330783e-04
1.15000000e+00	3.76705774e-03	1.29059513e-04
1.15500000e+00	3.81500425e-03	1.29445984e-04
1.16000000e+00	3.79767445e-03	1.29218127e-04
1.16500000e+00	3.79662993e-03	1.29032141e-04
1.17000000e+00	3.83217617e-03	1.31909652e-04
1.17500000e+00	3.85703637e-03	1.30883300e-04
1.18000000e+00	3.89164842e-03	1.32652001e-04
1.18500000e+00	3.87984051e-03	1.32008418e-04
1.19000000e+00	3.90522752e-03	1.34297696e-04
1.19500000e+00	3.92692909e-03	1.33521868e-04
1.20000000e+00	3.94600146e-03	1.34850340e-04
1.20500000e+00	3.95560812e-03	1.34915665e-04
1.21000000e+00	3.96697213e-03	1.37089469e-04
1.21500000e+00	4.00250227e-03	1.36192027e-04
1.22000000e+00	3.99356951e-03	1.35918057e-04
1.22500000e+00	4.02552137e-03	1.37597479e-04
1.23000000e+00	4.04664326e-03	1.39356885e-04
1.23500000e+00	4.06620176e-03	1.39179163e-04
1.24000000e+00	4.06779100e-03	1.38565369e-04
1.24500000e+00	4.09471507e-03	1.40485357e-04
1.25000000e+00	4.09302949e-03	1.41234880e-04
1.25500000e+00	4.11030756e-03	1.40212976e-04
1.26000000e+00	4.13867933e-03	1.42080978e-04
1.26500000e+00	4.19029969e-03	1.43244088e-04
1.27000000e+00	4.19531062e-03	1.45581761e-04
1.27500000e+00	4.20170069e-03	1.44250877e-04
1.28000000e+00	4.20517105e-03	1.43476533e-04
1.28500000e+00	4.23313819e-03	1.45249932e-04
1.29000000e+00	4.23903211e-03	1.46756860e-04
1.29500000e+00	4.26767546e-03	1.46191194e-04
1.30000000e+00	4.27291529e-03	1.46182372e-04
1.30500000e+00	4.29262120e-03	1.47398120e-04
1.31000000e+00	4.32219969e-03	1.50157152e-04
1.31500000e+00	4.33037324e-03	1.48633810e-04
1.32000000e+00	4.35599468e-03	1.49310830e-04
1.32500000e+00	4.37819633e-03	1.50514243e-04
1.33000000e+00	4.40369676e-03	1.53160582e-04
1.33500000e+00	4.41209530e-03	1.51357408e-04
1.34000000e+00	4.44685189e-03	1.52753786e-04
1.34500000e+00	4.46468476e-03	1.53903209e-04
1.35000000e+00	4.47349325e-03	1.55594836e-04
1.35500000e+00	4.49605919e-03	1.54325777e-04
1.36000000e+00	4.52432859e-03	1.55013979e-04
1.36500000e+00	4.54964736e-03	1.56383447e-04
1.37000000e+00	4.58101752e-03	1.59747637e-04
1.37500000e+00	4.57863680e-03	1.57239601e-04
1.38000000e+00	4.58563903e-03	1.57860783e-04
1.38500000e+00	4.58959972e-03	1.58774885e-04
1.39000000e+00	4.59197504e-03	1.60003896e-04
1.39500000e+00	4.61017126e-03	1.58302837e-04
1.40000000e+00	4.64615250e-03	1.64315904e-04
1.40500000e+00	4.63879099e-03	1.76522092e-04
1.41000000e+00	4.64174353e-03	1.85655745e-04
1.41500000e+00	4.58069396e-03	1.89262864e-04
1.42000000e+00	4.54210114e-03	1.95162981e-04
1.42500000e+00	4.53239576e-03	2.00519204e-04
1.43000000e+00	4.50317688e-03	2.06900145e-04
1.43500000e+00	4.46974588e-03	2.11581213e-04
1.44000000e+00	4.42528403e-03	2.17716988e-04
1.44500000e+00	4.40139339e-03	2.22228885e-04
1.45000000e+00	4.49176140e-03	2.19116217e-04
1.45500000e+00	4.49724198e-03	1.96937778e-04
1.46000000e+00	4.47928410e-03	1.91767502e-04
1.46500000e+00	4.44927467e-03	1.87145955e-04
1.47000000e+00	4.40708129e-03	1.84986700e-04
1.47500000e+00	4.39433149e-03	1.79029592e-04
1.48000000e+00	4.37464048e-03	1.76393509e-04
1.48500000e+00	4.34754256e-03	1.75474023e-04
1.49000000e+00	4.36290813e-03	1.76542753e-04
1.49500000e+00	4.34102092e-03	1.71770225e-04
1.50000000e+00	4.35787918e-03	1.71837716e-04
1.50500000e+00	4.33497040e-03	1.71803913e-04
1.51000000e+00	4.36297911e-03	1.73353350e-04
1.51500000e+00	4.33948552e-03	1.69549094e-04
1.52000000e+00	4.34173780e-03	1.69041714e-04
1.52500000e+00	4.38691443e-03	1.70677822e-04
1.53000000e+00	4.35003090e-03	1.70294336e-04
1.53500000e+00	4.31262766e-03	1.63964421e-04
1.54000000e+00	4.31696495e-03	1.63872382e-04
1.54500000e+00	4.27225010e-03	1.61882732e-04
1.55000000e+00	4.28807137e-03	1.62040939e-04
1.55500000e+00	4.26858065e-03	1.57642345e-04
1.56000000e+00	4.21902352e-03	1.56255189e-04
1.56500000e+00	4.21574665e-03	1.55239482e-04
1.57000000e+00	4.18809006e-03	1.53202681e-04
1.57500000e+00	4.17412298e-03	1.49868489e-04
1.58000000e+00	4.17573329e-03	1.49592671e-04
1.58500000e+00	4.14237409e-03	1.48398008e-04
1.59000000e+00	4.15504786e-03	1.48885538e-04
1.59500000e+00	4.12312617e-03	1.44999314e-04
1.60000000e+00	4.16206643e-03	1.46232082e-04
1.60500000e+00	4.16830166e-03	1.46475160e-04
1.61000000e+00	4.15568442e-03	1.45474749e-04
1.61500000e+00	4.16100103e-03	1.44401574e-04
1.62000000e+00	4.15538442e-03	1.44744924e-04
1.62500000e+00	4.13670157e-03	1.45860987e-04
1.63000000e+00	4.14331719e-03	1.44447979e-04
1.63500000e+00	4.16019579e-03	1.44981306e-04
1.64000000e+00	4.15935555e-03	1.45140613e-04
1.64500000e+00	4.18660885e-03	1.47680616e-04
1.65000000e+00	4.19299693e-03	1.46304239e-04
1.65500000e+00	4.19160946e-03	1.46067553e-04
1.66000000e+00	4.18237247e-03	1.45882233e-04
1.66500000e+00	4.19020671e-03	1.48622240e-04
1.67000000e+00	4.19480783e-03	1.45756039e-04
1.67500000e+00	4.20205774e-03	1.46332037e-04
1.68000000e+00	4.18051419e-03	1.45999110e-04
1.68500000e+00	4.18824684e-03	1.48674472e-04
1.69000000e+00	4.18604792e-03	1.45750344e-04
1.69500000e+00	4.16340897e-03	1.44763276e-04
1.70000000e+00	4.14248431e-03	1.45692955e-04
1.70500000e+00	4.12484854e-03	1.45651640e-04
1.71000000e+00	4.11186448e-03	1.43376527e-04
1.71500000e+00	4.10264991e-03	1.42935829e-04
1.72000000e+00	4.07007973e-03	1.42915519e-04
1.72500000e+00	4.07171736e-03	1.43818878e-04
1.73000000e+00	4.04595163e-03	1.41037695e-04
1.73500000e+00	4.00917923e-03	1.40127279e-04
1.74000000e+00	3.98703824e-03	1.39722626e-04
1.74500000e+00	3.96670500e-03	1.40646192e-04
1.75000000e+00	3.94609511e-03	1.37232055e-04
1.75500000e+00	3.91503567e-03	1.37022003e-04
1.76000000e+00	3.89517753e-03	1.36338640e-04
1.76500000e+00	3.87490665e-03	1.37322977e-04
1.77000000e+00	3.84895940e-03	1.34065942e-04
1.77500000e+00	3.83191407e-03	1.33941647e-04
1.78000000e+00	3.80522056e-03	1.33364744e-04
1.78500000e+00	3.79870005e-03	1.34572782e-04
1.79000000e+00	3.78007614e-03	1.31656916e-04
1.79500000e+00	3.79439581e-03	1.32956154e-04
1.80000000e+00	3.75123913e-03	1.31857507e-04
1.80500000e+00	3.74628620e-03	1.32480290e-04
1.81000000e+00	3.71150777e-03	1.29410880e-04
1.81500000e+00	3.69906762e-03	1.28998310e-04
1.82000000e+00	3.68168180e-03	1.29274909e-04
1.82500000e+00	3.66293709e-03	1.29372844e-04
1.83000000e+00	3.64698367e-03	1.27197238e-04
1.83500000e+00	3.61009534e-03	1.26158332e-04
1.84000000e+00	3.61056142e-03	1.26849521e-04
1.84500000e+00	3.61461549e-03	1.27702097e-04
1.85000000e+00	3.59270587e-03	1.25468093e-04
1.85500000e+00	3.57477170e-03	1.24916503e-04
1.86000000e+00	3.54826605e-03	1.24828011e-04
1.86500000e+00	3.53601452e-03	1.24607909e-04
1.87000000e+00	3.53757589e-03	1.23407421e-04
1.87500000e+00	3.50478730e-03	1.22672713e-04
1.88000000e+00	3.47628558e-03	1.22222865e-04
1.88500000e+00	3.48180894e-03	1.23243121e-04
1.89000000e+00	3.48386845e-03	1.21539861e-04
1.89500000e+00	3.45295561e-03	1.21040338e-04
1.90000000e+00	3.45378396e-03	1.21409217e-04
1.90500000e+00	3.43368519e-03	1.20826895e-04
1.91000000e+00	3.43996404e-03	1.20166565e-04
1.91500000e+00	3.42224174e-03	1.19646330e-04
1.92000000e+00	3.40941812e-03	1.19930107e-04
1.92500000e+00	3.39086033e-03	1.19371296e-04
1.93000000e+00	3.40168621e-03	1.18698774e-04
1.93500000e+00	3.37902254e-03	1.18241917e-04
1.94000000e+00	3.39817842e-03	1.19930141e-04
1.94500000e+00	3.40344228e-03	1.20196186e-04
1.95000000e+00	3.33111091e-03	1.16068775e-04
1.95500000e+00	3.33138951e-03	1.16531331e-04
1.96000000e+00	3.33351055e-03	1.17400331e-04
1.96500000e+00	3.31345236e-03	1.16757966e-04
1.97000000e+00	3.31111939e-03	1.15270148e-04
1.97500000e+00	3.30348234e-03	1.15829878e-04
1.98000000e+00	3.26998252e-03	1.15043582e-04
1.98500000e+00	3.25658438e-03	1.14900058e-04
1.99000000e+00	3.23875381e-03	1.12759586e-04
1.99500000e+00	3.24827584e-03	1.13604531e-04
2.00000000e+00	3.25712456e-03	1.14750626e-04
2.00500000e+00	3.36830478e-03	1.19845670e-04
2.01000000e+00	3.28227912e-03	1.28244190e-04
2.01500000e+00	3.20505516e-03	1.31838603e-04
2.02000000e+00	3.18063886e-03	1.39477386e-04
2.02500000e+00	3.17696626e-03	1.44714767e-04
2.03000000e+00	3.14306935e-03	1.51659944e-04
2.03500000e+00	3.11132434e-03	1.56688076e-04
2.04000000e+00	3.10944923e-03	1.63784240e-04
2.04500000e+00	3.09489233e-03	1.71466166e-04
2.05000000e+00	3.10395990e-03	1.80654189e-04
2.05500000e+00	3.07492533e-03	1.75378345e-04
2.06000000e+00	3.13700622e-03	1.55554502e-04
2.06500000e+00	3.12950673e-03	1.48483744e-04
2.07000000e+00	3.10515253e-03	1.39437128e-04
2.07500000e+00	3.11652561e-03	1.36753562e-04
2.08000000e+00	3.09896795e-03	1.35718821e-04
2.08500000e+00	3.11574575e-03	1.35353586e-04
2.09000000e+00	3.08367160e-03	1.29887888e-04
2.09500000e+00	3.10714238e-03	1.29549361e-04
2.10000000e+00	3.09249025e-03	1.28065458e-04
2.10500000e+00	3.06613890e-03	1.26538003e-04
2.11000000e+00	3.04667697e-03	1.21133144e-04
2.11500000e+00	3.06447564e-03	1.20572521e-04
2.12000000e+00	3.00345976e-03	1.17657412e-04
2.12500000e+00	2.99326358e-03	1.16855404e-04
2.13000000e+00	2.97421733e-03	1.11323856e-04
2.13500000e+00	2.97032272e-03	1.09844013e-04
2.14000000e+00	2.94043761e-03	1.07771086e-04
2.14500000e+00	2.92237684e-03	1.07409648e-04
2.15000000e+00	2.90823300e-03	1.03295529e-04
2.15500000e+00	2.88618019e-03	1.02838453e-04
2.16000000e+00	2.86060081e-03	1.01378532e-04
2.16500000e+00	2.87484370e-03	1.02595450e-04
2.17000000e+00	2.86271683e-03	9.96383909e-05
2.17500000e+00	2.85641908e-03	9.97068569e-05
2.18000000e+00	2.84895800e-03	9.98235072e-05
2.18500000e+00	2.82474826e-03	9.93548622e-05
2.19000000e+00	2.82916655e-03	9.91890209e-05
2.19500000e+00	2.79940187e-03	9.76058198e-05
2.20000000e+00	2.79470328e-03	9.77041366e-05
2.20500000e+00	2.79513829e-03	9.80783612e-05
2.21000000e+00	2.75140596e-03	9.70168741e-05
2.21500000e+00	2.76290847e-03	9.63629724e-05
2.22000000e+00	2.75318270e-03	9.59079888e-05
2.22500000e+00	2.73519939e-03	9.60919667e-05
2.23000000e+00	2.72024357e-03	9.60934532e-05
2.23500000e+00	2.70852893e-03	9.43199168e-05
2.24000000e+00	2.70043883e-03	9.40363010e-05
2.24500000e+00	2.68107186e-03	9.40895868e-05
2.25000000e+00	2.66432905e-03	9.42911383e-05
2.25500000e+00	2.63647469e-03	9.16094237e-05
2.26000000e+00	2.62091932e-03	9.14920690e-05
2.26500000e+00	2.65068134e-03	9.28081235e-05
2.27000000e+00	2.61003686e-03	9.26980721e-05
2.27500000e+00	2.59875245e-03	9.04849668e-05
2.28000000e+00	2.60002856e-03	9.05466745e-05
2.28500000e+00	2.56950585e-03	9.01199883e-05
2.29000000e+00	2.57418442e-03	9.08156995e-05
2.29500000e+00	2.54380307e-03	8.94375737e-05
2.30000000e+00	2.51728028e-03	8.77189001e-05
2.30500000e+00	2.50321855e-03	8.74933334e-05
2.31000000e+00	2.47863925e-03	8.71225181e-05
2.31500000e+00	2.48008177e-03	8.79077098e-05
2.32000000e+00	2.44193271e-03	8.48352957e-05
2.32500000e+00	2.43240905e-03	8.51937495e-05
2.33000000e+00	2.41231246e-03	8.47525728e-05
2.33500000e+00	2.40858670e-03	8.54612014e-05
2.34000000e+00	2.39711046e-03	8.36147679e-05
2.34500000e+00	2.36984645e-03	8.27376157e-05
2.35000000e+00	2.35107575e-03	8.24270221e-05
2.35500000e+00	2.31718735e-03	8.23240047e-05
2.36000000e+00	2.30211335e-03	8.06574483e-05
2.36500000e+00	2.29402462e-03	8.02113817e-05
2.37000000e+00	2.30806758e-03	8.09070048e-05
2.37500000e+00	2.25604706e-03	7.98119760e-05
2.38000000e+00	2.23595786e-03	7.94949739e-05
2.38500000e+00	2.23279660e-03	7.81276114e-05
2.39000000e+00	2.24215626e-03	7.86894080e-05
2.39500000e+00	2.20271743e-03	7.77315851e-05
2.40000000e+00	2.19269747e-03	7.85690427e-05
2.40500000e+00	2.18752141e-03	7.67383964e-05
2.41000000e+00	2.15796631e-03	7.60404991e-05
2.41500000e+00	2.15722541e-03	7.59973304e-05
2.42000000e+00	2.14884183e-03	7.67853885e-05
2.42500000e+00	2.12176202e-03	7.57853210e-05
2.43000000e+00	2.10655843e-03	7.43558922e-05
2.43500000e+00	2.12202943e-03	7.52293899e-05
2.44000000e+00	2.06146115e-03	7.33298604e-05
2.44500000e+00	2.06175890e-03	7.42892678e-05
2.45000000e+00	2.05292912e-03	7.27152653e-05
2.45500000e+00	2.06063149e-03	7.32227235e-05
2.46000000e+00	2.04762356e-03	7.29176501e-05
2.46500000e+00	2.01571299e-03	7.28490255e-05
2.47000000e+00	2.02204682e-03	7.22064383e-05
2.47500000e+00	1.99903445e-03	7.10877268e-05
2.48000000e+00	1.98959173e-03	7.13853388e-05
2.48500000e+00	1.95591473e-03	7.02028812e-05
2.49000000e+00	1.96351126e-03	7.15074053e-05
2.49500000e+00	1.96050653e-03	6.99939630e-05
2.50000000e+00	1.93459448e-03	6.93204893e-05
2.50500000e+00	1.91152705e-03	6.89267515e-05
2.51000000e+00	1.92853555e-03	6.99587347e-05
2.51500000e+00	1.90030107e-03	6.91007689e-05
2.52000000e+00	1.91813061e-03	6.90203308e-05
2.52500000e+00	1.89160362e-03	6.84221893e-05
2.53000000e+00	1.87897928e-03	6.86958800e-05
2.53500000e+00	1.87242247e-03	6.91510105e-05
2.54000000e+00	1.86323319e-03	6.76967350e-05
2.54500000e+00	1.84098403e-03	6.72478703e-05
2.55000000e+00	1.84343546e-03	6.76828875e-05
2.55500000e+00	1.81794495e-03	6.73136317e-05
2.56000000e+00	1.81042547e-03	6.73992089e-05
2.56500000e+00	1.81217674e-03	6.68746721e-05
2.57000000e+00	1.78187184e-03	6.60086467e-05
2.57500000e+00	1.76469599e-03	6.55694091e-05
2.58000000e+00	1.76792198e-03	6.68951921e-05
2.58500000e+00	1.74403284e-03	6.54387992e-05
2.59000000e+00	1.74929075e-03	6.52716795e-05
2.59500000e+00	1.71764156e-03	6.44322203e-05
2.60000000e+00	1.67751512e-03	6.34889059e-05
2.60500000e+00	1.66093076e-03	6.42946745e-05
2.61000000e+00	1.60914375e-03	7.10963353e-05
2.61500000e+00	1.56938180e-03	7.68958147e-05
2.62000000e+00	1.58037141e-03	8.53614427e-05
2.62500000e+00	1.60745890e-03	9.32735243e-05
2.63000000e+00	1.59820808e-03	1.02108556e-04
2.63500000e+00	1.60100445e-03	1.13022712e-04
2.64000000e+00	1.56842334e-03	1.21835467e-04
2.64500000e+00	1.55115681e-03	1.28939338e-04
2.65000000e+00	1.40117095e-03	1.24003436e-04
2.65500000e+00	1.38389437e-03	1.31257826e-04
2.66000000e+00	1.24935181e-03	1.27227952e-04
2.66500000e+00	1.19064083e-03	1.35635015e-04
2.67000000e+00	1.05081776e-03	1.29211801e-04
2.67500000e+00	1.09216898e-03	1.56889672e-04
2.68000000e+00	1.09166348e-03	1.81114728e-04
2.68500000e+00	1.09046266e-03	2.42203228e-04
2.69000000e+00	1.20090518e-03	4.26211550e-04
2.69500000e+00	0.00000000e+00	0.00000000e+00
2.70000000e+00	0.00000000e+00	0.00000000e+00
