% Filename : WEC9_00044_00021.h5
% Date & Time : 30-Oct-2025 18:04:42
% X-ray Energy (keV) : 13.30001
% Exposure Time (s) : 0.500
% Photodiode Value : 140740.000
% I0 of Sample : 0
% I0 of Standard : 1
% 
% q(A^-1)   I(q)    I(q)_SE
8.40000000e-01	0.00000000e+00	0.00000000e+00
8.45000000e-01	4.02021905e-03	7.02648221e-04
8.50000000e-01	3.72873864e-03	3.45353868e-04
8.55000000e-01	3.65614066e-03	2.98416609e-04
8.60000000e-01	3.67741097e-03	2.59631598e-04
8.65000000e-01	3.65865779e-03	2.37927001e-04
8.70000000e-01	3.65942890e-03	2.26832377e-04
8.75000000e-01	3.62407369e-03	2.16255362e-04
8.80000000e-01	3.68012913e-03	2.12226537e-04
8.85000000e-01	3.64048253e-03	1.98612646e-04
8.90000000e-01	3.69038212e-03	1.96976495e-04
8.95000000e-01	3.65158024e-03	1.89382220e-04
9.00000000e-01	3.68111657e-03	1.89137547e-04
9.05000000e-01	3.67700277e-03	1.80641071e-04
9.10000000e-01	3.70197856e-03	1.78544903e-04
9.15000000e-01	3.68190261e-03	1.74676125e-04
9.20000000e-01	3.66669395e-03	1.73723584e-04
9.25000000e-01	3.67991036e-03	1.66787819e-04
9.30000000e-01	3.68701543e-03	1.65464011e-04
9.35000000e-01	3.71663452e-03	1.63600795e-04
9.40000000e-01	3.69318635e-03	1.63112600e-04
9.45000000e-01	3.71576901e-03	1.59947590e-04
9.50000000e-01	3.71077432e-03	1.57431059e-04
9.55000000e-01	3.71418024e-03	1.54731069e-04
9.60000000e-01	3.70316275e-03	1.54409778e-04
9.65000000e-01	3.72512411e-03	1.52675127e-04
9.70000000e-01	3.70273825e-03	1.49332707e-04
9.75000000e-01	3.72911562e-03	1.48742976e-04
9.80000000e-01	3.73506371e-03	1.47669814e-04
9.85000000e-01	3.72728346e-03	1.47633617e-04
9.90000000e-01	3.74932691e-03	1.43886626e-04
9.95000000e-01	3.75040251e-03	1.43187732e-04
1.00000000e+00	3.74401905e-03	1.42243315e-04
1.00500000e+00	3.73726540e-03	1.42099631e-04
1.01000000e+00	3.75568952e-03	1.39756749e-04
1.01500000e+00	3.74569421e-03	1.37968206e-04
1.02000000e+00	3.71593397e-03	1.36836351e-04
1.02500000e+00	3.70048269e-03	1.34520252e-04
1.03000000e+00	3.72097498e-03	1.34833565e-04
1.03500000e+00	3.73520433e-03	1.33394894e-04
1.04000000e+00	3.76007401e-03	1.33404290e-04
1.04500000e+00	3.72680054e-03	1.32280064e-04
1.05000000e+00	3.72017254e-03	1.31053879e-04
1.05500000e+00	3.71668388e-03	1.28919713e-04
1.06000000e+00	3.71397923e-03	1.28566384e-04
1.06500000e+00	3.71495385e-03	1.28607313e-04
1.07000000e+00	3.74641791e-03	1.29603661e-04
1.07500000e+00	3.73376690e-03	1.28199539e-04
1.08000000e+00	3.76308335e-03	1.28393425e-04
1.08500000e+00	3.77911474e-03	1.29109738e-04
1.09000000e+00	3.79672318e-03	1.30454236e-04
1.09500000e+00	3.79239638e-03	1.27659339e-04
1.10000000e+00	3.79538567e-03	1.28746225e-04
1.10500000e+00	3.80212100e-03	1.29359700e-04
1.11000000e+00	3.80385571e-03	1.29512904e-04
1.11500000e+00	3.83171418e-03	1.29551812e-04
1.12000000e+00	3.86786483e-03	1.31315850e-04
1.12500000e+00	3.87490452e-03	1.31237073e-04
1.13000000e+00	3.88338576e-03	1.33080293e-04
1.13500000e+00	3.90492403e-03	1.32241782e-04
1.14000000e+00	3.93043106e-03	1.32903029e-04
1.14500000e+00	3.94062947e-03	1.34293237e-04
1.15000000e+00	3.93152116e-03	1.34704907e-04
1.15500000e+00	3.97691023e-03	1.34826760e-04
1.16000000e+00	3.98389443e-03	1.35519905e-04
1.16500000e+00	4.00279066e-03	1.35994991e-04
1.17000000e+00	3.99817303e-03	1.37537707e-04
1.17500000e+00	3.99981533e-03	1.35657427e-04
1.18000000e+00	4.04493323e-03	1.37816429e-04
1.18500000e+00	4.06623942e-03	1.38331304e-04
1.19000000e+00	4.09689394e-03	1.40889377e-04
1.19500000e+00	4.09968771e-03	1.39257044e-04
1.20000000e+00	4.13932318e-03	1.41483073e-04
1.20500000e+00	4.14953510e-03	1.41479563e-04
1.21000000e+00	4.18311966e-03	1.44477162e-04
1.21500000e+00	4.15225214e-03	1.41169564e-04
1.22000000e+00	4.20610890e-03	1.43178010e-04
1.22500000e+00	4.20636241e-03	1.43646780e-04
1.23000000e+00	4.22435140e-03	1.45464866e-04
1.23500000e+00	4.24631548e-03	1.45202242e-04
1.24000000e+00	4.27205307e-03	1.45396804e-04
1.24500000e+00	4.28773725e-03	1.46954548e-04
1.25000000e+00	4.27576487e-03	1.47516222e-04
1.25500000e+00	4.33747217e-03	1.47875659e-04
1.26000000e+00	4.34910187e-03	1.49155473e-04
1.26500000e+00	4.39624682e-03	1.50247207e-04
1.27000000e+00	4.37688114e-03	1.51748547e-04
1.27500000e+00	4.43042667e-03	1.52011752e-04
1.28000000e+00	4.44664358e-03	1.51647730e-04
1.28500000e+00	4.45601215e-03	1.52806758e-04
1.29000000e+00	4.45556295e-03	1.54198183e-04
1.29500000e+00	4.47214621e-03	1.53141891e-04
1.30000000e+00	4.52276246e-03	1.54605124e-04
1.30500000e+00	4.53785534e-03	1.55771613e-04
1.31000000e+00	4.57304969e-03	1.58800191e-04
1.31500000e+00	4.58188156e-03	1.57147840e-04
1.32000000e+00	4.61094747e-03	1.58006411e-04
1.32500000e+00	4.65726239e-03	1.60065037e-04
1.33000000e+00	4.67891830e-03	1.62730901e-04
1.33500000e+00	4.73962292e-03	1.62568639e-04
1.34000000e+00	4.78698704e-03	1.64395064e-04
1.34500000e+00	4.83351648e-03	1.66587018e-04
1.35000000e+00	4.83683556e-03	1.68242069e-04
1.35500000e+00	4.90558463e-03	1.68333645e-04
1.36000000e+00	4.92618600e-03	1.68697225e-04
1.36500000e+00	4.96995043e-03	1.70810365e-04
1.37000000e+00	5.01643908e-03	1.74928358e-04
1.37500000e+00	5.05497911e-03	1.73605463e-04
1.38000000e+00	5.04067401e-03	1.73573177e-04
1.38500000e+00	5.06374960e-03	1.75265685e-04
1.39000000e+00	5.05971198e-03	1.76230855e-04
1.39500000e+00	5.05877062e-03	1.73659450e-04
1.40000000e+00	5.13325709e-03	1.81555519e-04
1.40500000e+00	5.07053967e-03	1.92910586e-04
1.41000000e+00	4.97720464e-03	1.98291880e-04
1.41500000e+00	5.02687086e-03	2.07615178e-04
1.42000000e+00	4.98429410e-03	2.14140582e-04
1.42500000e+00	4.96353186e-03	2.19385275e-04
1.43000000e+00	4.92643274e-03	2.26220123e-04
1.43500000e+00	4.88428256e-03	2.31052112e-04
1.44000000e+00	4.82071576e-03	2.36919354e-04
1.44500000e+00	4.76709257e-03	2.40441114e-04
1.45000000e+00	4.88147616e-03	2.37972815e-04
1.45500000e+00	4.87658434e-03	2.13547384e-04
1.46000000e+00	4.82568619e-03	2.06413144e-04
1.46500000e+00	4.77308076e-03	2.00678896e-04
1.47000000e+00	4.72204582e-03	1.98065017e-04
1.47500000e+00	4.75320809e-03	1.93534103e-04
1.48000000e+00	4.70135056e-03	1.89543553e-04
1.48500000e+00	4.68888465e-03	1.89014916e-04
1.49000000e+00	4.62965502e-03	1.87125990e-04
1.49500000e+00	4.64231116e-03	1.83620585e-04
1.50000000e+00	4.63391705e-03	1.82544284e-04
1.50500000e+00	4.62487165e-03	1.83222000e-04
1.51000000e+00	4.60417573e-03	1.82873465e-04
1.51500000e+00	4.62905785e-03	1.80759446e-04
1.52000000e+00	4.61337087e-03	1.79594525e-04
1.52500000e+00	4.61541330e-03	1.79573511e-04
1.53000000e+00	4.57287836e-03	1.78931095e-04
1.53500000e+00	4.52728127e-03	1.72079062e-04
1.54000000e+00	4.55536167e-03	1.72821329e-04
1.54500000e+00	4.52820683e-03	1.71525513e-04
1.55000000e+00	4.51039119e-03	1.70462056e-04
1.55500000e+00	4.46551580e-03	1.64883809e-04
1.56000000e+00	4.46566504e-03	1.65330467e-04
1.56500000e+00	4.40104699e-03	1.62092655e-04
1.57000000e+00	4.40589533e-03	1.61036499e-04
1.57500000e+00	4.39523640e-03	1.57638329e-04
1.58000000e+00	4.40002289e-03	1.57503576e-04
1.58500000e+00	4.40114374e-03	1.57537395e-04
1.59000000e+00	4.35913550e-03	1.56243252e-04
1.59500000e+00	4.36276568e-03	1.53323598e-04
1.60000000e+00	4.35555084e-03	1.52985612e-04
1.60500000e+00	4.30955115e-03	1.51488239e-04
1.61000000e+00	4.33775341e-03	1.51763044e-04
1.61500000e+00	4.33623908e-03	1.50360497e-04
1.62000000e+00	4.32730017e-03	1.50748296e-04
1.62500000e+00	4.31475688e-03	1.51942874e-04
1.63000000e+00	4.36073841e-03	1.51914213e-04
1.63500000e+00	4.36100685e-03	1.51989898e-04
1.64000000e+00	4.39395093e-03	1.53191495e-04
1.64500000e+00	4.35577175e-03	1.53539901e-04
1.65000000e+00	4.34206192e-03	1.51409055e-04
1.65500000e+00	4.36392847e-03	1.51904845e-04
1.66000000e+00	4.36932876e-03	1.52330469e-04
1.66500000e+00	4.37155798e-03	1.55010472e-04
1.67000000e+00	4.35306579e-03	1.51103758e-04
1.67500000e+00	4.35499056e-03	1.51583212e-04
1.68000000e+00	4.33877249e-03	1.51434334e-04
1.68500000e+00	4.32958272e-03	1.53618919e-04
1.69000000e+00	4.34034487e-03	1.51008927e-04
1.69500000e+00	4.29389930e-03	1.49190237e-04
1.70000000e+00	4.29797004e-03	1.51021611e-04
1.70500000e+00	4.25236087e-03	1.50066621e-04
1.71000000e+00	4.26262655e-03	1.48532647e-04
1.71500000e+00	4.24631621e-03	1.47944956e-04
1.72000000e+00	4.24552395e-03	1.48966743e-04
1.72500000e+00	4.20820494e-03	1.48578124e-04
1.73000000e+00	4.19874252e-03	1.46296618e-04
1.73500000e+00	4.16768144e-03	1.45591305e-04
1.74000000e+00	4.15018427e-03	1.45381259e-04
1.74500000e+00	4.10472388e-03	1.45562587e-04
1.75000000e+00	4.09959866e-03	1.42522774e-04
1.75500000e+00	4.09353630e-03	1.43278738e-04
1.76000000e+00	4.05255902e-03	1.41701196e-04
1.76500000e+00	4.02523035e-03	1.42620487e-04
1.77000000e+00	4.01764790e-03	1.39870507e-04
1.77500000e+00	3.99674652e-03	1.39539458e-04
1.78000000e+00	3.96184705e-03	1.38854268e-04
1.78500000e+00	3.96976146e-03	1.40656399e-04
1.79000000e+00	3.94586139e-03	1.37320352e-04
1.79500000e+00	3.89334950e-03	1.35989855e-04
1.80000000e+00	3.90595444e-03	1.37199223e-04
1.80500000e+00	3.87398400e-03	1.37010099e-04
1.81000000e+00	3.85025452e-03	1.34109723e-04
1.81500000e+00	3.82964702e-03	1.33515423e-04
1.82000000e+00	3.83199514e-03	1.34488210e-04
1.82500000e+00	3.79829329e-03	1.34071777e-04
1.83000000e+00	3.79966542e-03	1.32525689e-04
1.83500000e+00	3.79824402e-03	1.32622344e-04
1.84000000e+00	3.79438863e-03	1.33294406e-04
1.84500000e+00	3.78591872e-03	1.33654235e-04
1.85000000e+00	3.72102117e-03	1.29832233e-04
1.85500000e+00	3.76260373e-03	1.31387718e-04
1.86000000e+00	3.70571433e-03	1.30343305e-04
1.86500000e+00	3.71323411e-03	1.30960311e-04
1.87000000e+00	3.68885009e-03	1.28610598e-04
1.87500000e+00	3.64996473e-03	1.27657887e-04
1.88000000e+00	3.65824256e-03	1.28508481e-04
1.88500000e+00	3.63611423e-03	1.28489104e-04
1.89000000e+00	3.63754424e-03	1.26775977e-04
1.89500000e+00	3.62169485e-03	1.26936320e-04
1.90000000e+00	3.60776296e-03	1.26777132e-04
1.90500000e+00	3.61909119e-03	1.27284531e-04
1.91000000e+00	3.61389750e-03	1.26254454e-04
1.91500000e+00	3.57409774e-03	1.24944330e-04
1.92000000e+00	3.53560333e-03	1.24282804e-04
1.92500000e+00	3.56713635e-03	1.25624399e-04
1.93000000e+00	3.54755400e-03	1.23718290e-04
1.93500000e+00	3.56299773e-03	1.24664452e-04
1.94000000e+00	3.52138696e-03	1.24145152e-04
1.94500000e+00	3.53652037e-03	1.24299671e-04
1.95000000e+00	3.53009508e-03	1.23010372e-04
1.95500000e+00	3.49876047e-03	1.22435494e-04
1.96000000e+00	3.47233742e-03	1.22229947e-04
1.96500000e+00	3.49388010e-03	1.23125381e-04
1.97000000e+00	3.46926186e-03	1.20739252e-04
1.97500000e+00	3.44069341e-03	1.20525389e-04
1.98000000e+00	3.43888155e-03	1.20971728e-04
1.98500000e+00	3.42380395e-03	1.20640470e-04
1.99000000e+00	3.43437574e-03	1.19480666e-04
1.99500000e+00	3.40609197e-03	1.19079655e-04
2.00000000e+00	3.40124999e-03	1.19737959e-04
2.00500000e+00	3.41933817e-03	1.20716050e-04
2.01000000e+00	3.40716285e-03	1.31924948e-04
2.01500000e+00	3.37713129e-03	1.38794428e-04
2.02000000e+00	3.31726347e-03	1.45395588e-04
2.02500000e+00	3.32555913e-03	1.51401274e-04
2.03000000e+00	3.33305972e-03	1.60747242e-04
2.03500000e+00	3.28054967e-03	1.65359747e-04
2.04000000e+00	3.25041460e-03	1.71161764e-04
2.04500000e+00	3.27891811e-03	1.81645360e-04
2.05000000e+00	3.22963077e-03	1.87769009e-04
2.05500000e+00	3.30369271e-03	1.88185288e-04
2.06000000e+00	3.33057903e-03	1.65085110e-04
2.06500000e+00	3.28416110e-03	1.55662423e-04
2.07000000e+00	3.29043154e-03	1.47653395e-04
2.07500000e+00	3.28034793e-03	1.43937071e-04
2.08000000e+00	3.32170639e-03	1.46277862e-04
2.08500000e+00	3.33717596e-03	1.45143186e-04
2.09000000e+00	3.30351036e-03	1.39012504e-04
2.09500000e+00	3.26924564e-03	1.36241160e-04
2.10000000e+00	3.23088870e-03	1.33700375e-04
2.10500000e+00	3.22992274e-03	1.33192274e-04
2.11000000e+00	3.20962446e-03	1.27539269e-04
2.11500000e+00	3.19632211e-03	1.25709213e-04
2.12000000e+00	3.14778150e-03	1.23158483e-04
2.12500000e+00	3.14436492e-03	1.22695260e-04
2.13000000e+00	3.11856075e-03	1.16747269e-04
2.13500000e+00	3.11471702e-03	1.15145379e-04
2.14000000e+00	3.07013322e-03	1.12516780e-04
2.14500000e+00	3.03069698e-03	1.11318632e-04
2.15000000e+00	3.04044345e-03	1.07994528e-04
2.15500000e+00	3.03781733e-03	1.08076454e-04
2.16000000e+00	3.01847014e-03	1.06895535e-04
2.16500000e+00	3.01724182e-03	1.07554857e-04
2.17000000e+00	2.99182101e-03	1.04013434e-04
2.17500000e+00	2.98793859e-03	1.04208657e-04
2.18000000e+00	2.97553561e-03	1.04095261e-04
2.18500000e+00	2.96914289e-03	1.04411153e-04
2.19000000e+00	2.95591803e-03	1.03609399e-04
2.19500000e+00	2.94765174e-03	1.02795879e-04
2.20000000e+00	2.90749443e-03	1.01661782e-04
2.20500000e+00	2.92398164e-03	1.02579752e-04
2.21000000e+00	2.89712306e-03	1.02123849e-04
2.21500000e+00	2.89447222e-03	1.00901453e-04
2.22000000e+00	2.85731408e-03	9.94609761e-05
2.22500000e+00	2.86329114e-03	1.00584877e-04
2.23000000e+00	2.84024175e-03	1.00348424e-04
2.23500000e+00	2.84823687e-03	9.90992170e-05
2.24000000e+00	2.81887170e-03	9.83459398e-05
2.24500000e+00	2.79360121e-03	9.80609878e-05
2.25000000e+00	2.79143526e-03	9.88310849e-05
2.25500000e+00	2.80253721e-03	9.75007127e-05
2.26000000e+00	2.77179532e-03	9.67306607e-05
2.26500000e+00	2.74359062e-03	9.61625413e-05
2.27000000e+00	2.74128366e-03	9.74486353e-05
2.27500000e+00	2.72218489e-03	9.48456367e-05
2.28000000e+00	2.72974684e-03	9.51800606e-05
2.28500000e+00	2.70491701e-03	9.49338492e-05
2.29000000e+00	2.68470781e-03	9.47992192e-05
2.29500000e+00	2.66087202e-03	9.36856903e-05
2.30000000e+00	2.64250606e-03	9.21203591e-05
2.30500000e+00	2.62436593e-03	9.18425586e-05
2.31000000e+00	2.59432051e-03	9.12654662e-05
2.31500000e+00	2.57317489e-03	9.13734999e-05
2.32000000e+00	2.56252473e-03	8.91154345e-05
2.32500000e+00	2.55151181e-03	8.94476314e-05
2.33000000e+00	2.53276227e-03	8.90437642e-05
2.33500000e+00	2.50105299e-03	8.88235097e-05
2.34000000e+00	2.49402265e-03	8.71261300e-05
2.34500000e+00	2.48376806e-03	8.68523744e-05
2.35000000e+00	2.44614412e-03	8.58847086e-05
2.35500000e+00	2.46002163e-03	8.74304444e-05
2.36000000e+00	2.41113891e-03	8.46214269e-05
2.36500000e+00	2.38812492e-03	8.36476865e-05
2.37000000e+00	2.37946257e-03	8.34839812e-05
2.37500000e+00	2.36006399e-03	8.35026083e-05
2.38000000e+00	2.34556953e-03	8.34150853e-05
2.38500000e+00	2.35635454e-03	8.25648614e-05
2.39000000e+00	2.33744274e-03	8.20904789e-05
2.39500000e+00	2.31432644e-03	8.18400769e-05
2.40000000e+00	2.28485715e-03	8.19201747e-05
2.40500000e+00	2.29763292e-03	8.06720117e-05
2.41000000e+00	2.29321447e-03	8.09057499e-05
2.41500000e+00	2.25444104e-03	7.97618702e-05
2.42000000e+00	2.23217118e-03	7.98755518e-05
2.42500000e+00	2.20170312e-03	7.87026939e-05
2.43000000e+00	2.22805176e-03	7.88252677e-05
2.43500000e+00	2.20572081e-03	7.84856552e-05
2.44000000e+00	2.17685892e-03	7.76180377e-05
2.44500000e+00	2.15092526e-03	7.76706575e-05
2.45000000e+00	2.15713402e-03	7.65572777e-05
2.45500000e+00	2.13656688e-03	7.60468219e-05
2.46000000e+00	2.13751631e-03	7.63368341e-05
2.46500000e+00	2.08124466e-03	7.52579718e-05
2.47000000e+00	2.09067258e-03	7.49574397e-05
2.47500000e+00	2.08027472e-03	7.40579298e-05
2.48000000e+00	2.05763594e-03	7.40689023e-05
2.48500000e+00	2.05946688e-03	7.39884711e-05
2.49000000e+00	2.03991544e-03	7.44467421e-05
2.49500000e+00	2.03361049e-03	7.26804183e-05
2.50000000e+00	2.00819182e-03	7.20790631e-05
2.50500000e+00	2.00502118e-03	7.23758183e-05
2.51000000e+00	2.00148636e-03	7.27989542e-05
2.51500000e+00	1.98253992e-03	7.22465178e-05
2.52000000e+00	1.96997331e-03	7.10869182e-05
2.52500000e+00	1.97601704e-03	7.17151541e-05
2.53000000e+00	1.97477613e-03	7.23515207e-05
2.53500000e+00	1.95731022e-03	7.25908515e-05
2.54000000e+00	1.93230791e-03	7.05704392e-05
2.54500000e+00	1.89824929e-03	6.95821010e-05
2.55000000e+00	1.91403358e-03	7.03858191e-05
2.55500000e+00	1.89737128e-03	7.05177554e-05
2.56000000e+00	1.86586202e-03	6.96403853e-05
2.56500000e+00	1.83792649e-03	6.80812875e-05
2.57000000e+00	1.79251405e-03	6.66959007e-05
2.57500000e+00	1.75980480e-03	6.56018820e-05
2.58000000e+00	1.71887088e-03	6.51533706e-05
2.58500000e+00	1.69506625e-03	6.37565123e-05
2.59000000e+00	1.64231292e-03	6.14966148e-05
2.59500000e+00	1.59906595e-03	6.01575257e-05
2.60000000e+00	1.57256688e-03	5.95691225e-05
2.60500000e+00	1.53118446e-03	5.92220289e-05
2.61000000e+00	1.48600435e-03	6.55423567e-05
2.61500000e+00	1.44590284e-03	7.05335783e-05
2.62000000e+00	1.44659349e-03	7.73588544e-05
2.62500000e+00	1.42537528e-03	8.27758958e-05
2.63000000e+00	1.42699176e-03	9.12587731e-05
2.63500000e+00	1.40093815e-03	9.90856138e-05
2.64000000e+00	1.38828834e-03	1.08568956e-04
2.64500000e+00	1.32743271e-03	1.10613167e-04
2.65000000e+00	1.21750311e-03	1.07349128e-04
2.65500000e+00	1.19865576e-03	1.13746157e-04
2.66000000e+00	1.13416299e-03	1.15108667e-04
2.66500000e+00	1.07139731e-03	1.22604765e-04
2.67000000e+00	1.07428191e-03	1.32625724e-04
2.67500000e+00	1.04631582e-03	1.51478924e-04
2.68000000e+00	1.00463188e-03	1.67917263e-04
2.68500000e+00	1.03248137e-03	2.29209460e-04
2.69000000e+00	1.02261350e-03	3.68231062e-04
2.69500000e+00	0.00000000e+00	0.00000000e+00
2.70000000e+00	0.00000000e+00	0.00000000e+00
